"Time (min)"	"Temperature (°C)"	"Weight (mg)"
8.88889E-4	24.50828	20.14169
.004166667	24.53829	20.14190
0.01250000	24.56605	20.14205
0.02083334	24.60043	20.14226
0.02916666	24.63153	20.14244
0.03750000	24.66142	20.14254
0.04583334	24.68996	20.14262
0.05416668	24.71820	20.14272
0.06250000	24.74721	20.14274
0.07083332	24.77894	20.14271
0.07916666	24.81028	20.14269
0.08750000	24.83856	20.14272
0.09583332	24.86822	20.14278
0.1041666	24.89595	20.14278
0.1125000	24.93554	20.14278
0.1208333	24.96434	20.14284
0.1291666	24.99853	20.14286
0.1375000	25.03722	20.14284
0.1458333	25.07117	20.14287
0.1541667	25.10070	20.14293
0.1625000	25.14261	20.14294
0.1708334	25.18250	20.14296
0.1791666	25.21894	20.14295
0.1875000	25.26130	20.14287
0.1958334	25.29983	20.14284
0.2041667	25.34532	20.14279
0.2125000	25.39046	20.14277
0.2208333	25.44104	20.14279
0.2291667	25.48602	20.14274
0.2375000	25.53788	20.14269
0.2458334	25.59118	20.14268
0.2541666	25.64736	20.14268
0.2625000	25.69965	20.14266
0.2708334	25.75924	20.14270
0.2791667	25.81648	20.14271
0.2875000	25.88062	20.14269
0.2958333	25.94501	20.14267
0.3041667	26.00968	20.14266
0.3125000	26.08132	20.14267
0.3208333	26.14463	20.14265
0.3291667	26.21969	20.14259
0.3375000	26.29612	20.14249
0.3458333	26.37230	20.14244
0.3541666	26.45495	20.14238
0.3625000	26.53010	20.14230
0.3708334	26.61846	20.14224
0.3791666	26.70284	20.14217
0.3875000	26.79256	20.14206
0.3958334	26.88528	20.14198
0.4041666	26.98229	20.14190
0.4125000	27.07864	20.14184
0.4208333	27.17360	20.14177
0.4291667	27.27771	20.14165
0.4375000	27.37808	20.14150
0.4458333	27.49058	20.14140
0.4541667	27.59636	20.14129
0.4625000	27.71291	20.14120
0.4708334	27.82724	20.14111
0.4791666	27.94641	20.14100
0.4875000	28.07148	20.14091
0.4958334	28.19196	20.14080
0.5041666	28.31896	20.14070
0.5125000	28.44724	20.14062
0.5208332	28.58150	20.14056
0.5291666	28.71582	20.14049
0.5375000	28.85658	20.14041
0.5458334	28.99563	20.14028
0.5541668	29.14005	20.14016
0.5625000	29.28688	20.14004
0.5708332	29.43980	20.13992
0.5791666	29.58799	20.13980
0.5875000	29.74682	20.13967
0.5958334	29.90660	20.13956
0.6041668	30.06788	20.13945
0.6125000	30.23313	20.13933
0.6208334	30.40054	20.13920
0.6291666	30.56935	20.13908
0.6375000	30.74332	20.13899
0.6458332	30.91820	20.13891
0.6541666	31.09687	20.13882
0.6625000	31.28214	20.13871
0.6708334	31.46900	20.13862
0.6791668	31.65421	20.13851
0.6875000	31.84373	20.13836
0.6958332	32.03501	20.13824
0.7041666	32.23904	20.13814
0.7125000	32.43360	20.13802
0.7208334	32.63982	20.13792
0.7291668	32.84795	20.13780
0.7375000	33.05450	20.13766
0.7458334	33.26556	20.13756
0.7541666	33.48476	20.13742
0.7625000	33.69897	20.13730
0.7708332	33.91802	20.13719
0.7791666	34.14546	20.13706
0.7875000	34.36870	20.13691
0.7958334	34.59500	20.13680
0.8041668	34.82813	20.13667
0.8125000	35.06403	20.13652
0.8208332	35.30510	20.13639
0.8291666	35.53680	20.13625
0.8375000	35.78730	20.13614
0.8458334	36.03072	20.13601
0.8541668	36.27718	20.13588
0.8625000	36.53174	20.13576
0.8708332	36.78400	20.13564
0.8791668	37.03735	20.13549
0.8875000	37.30087	20.13535
0.8958332	37.56114	20.13524
0.9041666	37.82661	20.13513
0.9125000	38.09509	20.13498
0.9208334	38.36028	20.13483
0.9291668	38.63541	20.13472
0.9375000	38.90139	20.13462
0.9458332	39.18643	20.13446
0.9541666	39.45891	20.13429
0.9625000	39.74410	20.13414
0.9708334	40.02859	20.13400
0.9791668	40.31685	20.13381
0.9875000	40.60340	20.13362
0.9958332	40.88860	20.13344
1.004167	41.18538	20.13324
1.012500	41.48394	20.13302
1.020833	41.77764	20.13275
1.029167	42.07787	20.13254
1.037500	42.37839	20.13238
1.045834	42.68482	20.13224
1.054167	42.99276	20.13207
1.062500	43.29791	20.13190
1.070833	43.60610	20.13173
1.079166	43.91797	20.13159
1.087500	44.23030	20.13144
1.095833	44.54626	20.13126
1.104166	44.86772	20.13114
1.112500	45.18336	20.13099
1.120833	45.51032	20.13078
1.129167	45.83212	20.13052
1.137500	46.15619	20.13026
1.145834	46.48294	20.13006
1.154167	46.81267	20.12984
1.162500	47.14354	20.12961
1.170834	47.47504	20.12941
1.179167	47.80617	20.12918
1.187500	48.14558	20.12894
1.195833	48.47832	20.12874
1.204166	48.82053	20.12853
1.212500	49.15831	20.12834
1.220833	49.49746	20.12814
1.229166	49.84258	20.12792
1.237500	50.18825	20.12769
1.245833	50.53239	20.12742
1.254167	50.88012	20.12715
1.262500	51.22478	20.12694
1.270834	51.57519	20.12667
1.279167	51.92281	20.12643
1.287500	52.27766	20.12618
1.295834	52.63038	20.12591
1.304167	52.98738	20.12562
1.312500	53.33760	20.12529
1.320833	53.69530	20.12496
1.329166	54.05593	20.12468
1.337500	54.41270	20.12439
1.345833	54.76918	20.12407
1.354166	55.13426	20.12379
1.362500	55.49250	20.12348
1.370833	55.85302	20.12316
1.379167	56.21910	20.12285
1.387500	56.58438	20.12255
1.395834	56.94957	20.12226
1.404167	57.31084	20.12192
1.412500	57.68243	20.12148
1.420834	58.04887	20.12089
1.429167	58.41211	20.12024
1.437500	58.78126	20.11958
1.445833	59.15182	20.11894
1.454166	59.52159	20.11827
1.462500	59.88989	20.11757
1.470833	60.26301	20.11689
1.479166	60.63610	20.11624
1.487500	61.00516	20.11559
1.495833	61.37865	20.11504
1.504167	61.75122	20.11458
1.512500	62.12830	20.11416
1.520834	62.50457	20.11375
1.529167	62.87529	20.11329
1.537500	63.24937	20.11284
1.545834	63.62508	20.11240
1.554167	64.00250	20.11195
1.562500	64.37932	20.11146
1.570833	64.75710	20.11100
1.579166	65.13449	20.11052
1.587500	65.50810	20.11005
1.595833	65.88866	20.10955
1.604166	66.26632	20.10900
1.612500	66.64454	20.10850
1.620833	67.02459	20.10799
1.629167	67.40147	20.10744
1.637500	67.78178	20.10692
1.645834	68.15642	20.10642
1.654167	68.53770	20.10587
1.662500	68.91969	20.10530
1.670834	69.29472	20.10474
1.679166	69.67441	20.10421
1.687500	70.05300	20.10369
1.695834	70.43469	20.10313
1.704166	70.81507	20.10262
1.712500	71.19284	20.10211
1.720833	71.57484	20.10152
1.729166	71.95374	20.10090
1.737500	72.33368	20.10034
1.745833	72.71285	20.09974
1.754167	73.09018	20.09915
1.762500	73.47222	20.09855
1.770834	73.85063	20.09784
1.779167	74.23028	20.09711
1.787500	74.60388	20.09638
1.795834	74.98528	20.09568
1.804166	75.36274	20.09498
1.812500	75.74136	20.09423
1.820834	76.12008	20.09347
1.829166	76.49493	20.09274
1.837500	76.87231	20.09199
1.845833	77.24870	20.09120
1.854166	77.62700	20.09048
1.862500	78.00538	20.08980
1.870833	78.38018	20.08908
1.879167	78.75462	20.08830
1.887500	79.13093	20.08746
1.895834	79.50784	20.08672
1.904167	79.88150	20.08598
1.912500	80.25890	20.08521
1.920834	80.63453	20.08445
1.929166	81.00811	20.08367
1.937500	81.38296	20.08287
1.945834	81.75644	20.08205
1.954166	82.12918	20.08116
1.962500	82.50540	20.08028
1.970833	82.87531	20.07944
1.979166	83.24842	20.07855
1.987500	83.62180	20.07762
1.995833	83.99015	20.07670
2.004166	84.36306	20.07575
2.012500	84.73580	20.07477
2.020833	85.10441	20.07381
2.029167	85.47845	20.07285
2.037500	85.84648	20.07191
2.045834	86.21608	20.07098
2.054166	86.58429	20.06999
2.062500	86.95232	20.06897
2.070834	87.32009	20.06800
2.079166	87.68511	20.06697
2.087500	88.05474	20.06593
2.095833	88.42181	20.06489
2.104167	88.78563	20.06387
2.112500	89.15620	20.06282
2.120834	89.51538	20.06173
2.129166	89.88407	20.06062
2.137500	90.24542	20.05953
2.145833	90.60997	20.05841
2.154167	90.97593	20.05723
2.162500	91.33391	20.05607
2.170834	91.70035	20.05490
2.179166	92.06226	20.05374
2.187500	92.42101	20.05256
2.195834	92.78499	20.05132
2.204166	93.14566	20.05011
2.212500	93.50522	20.04891
2.220833	93.86153	20.04769
2.229167	94.22297	20.04647
2.237500	94.58359	20.04526
2.245834	94.93925	20.04402
2.254166	95.29746	20.04278
2.262500	95.65347	20.04148
2.270833	96.01032	20.04016
2.279167	96.37094	20.03886
2.287500	96.72424	20.03751
2.295834	97.08014	20.03616
2.304166	97.42988	20.03477
2.312500	97.78808	20.03341
2.320834	98.14184	20.03199
2.329166	98.49366	20.03057
2.337500	98.84741	20.02916
2.345833	99.20275	20.02773
2.354167	99.55062	20.02631
2.362500	99.90147	20.02489
2.370834	100.2557	20.02342
2.379166	100.6038	20.02198
2.387500	100.9537	20.02056
2.395833	101.3016	20.01911
2.404167	101.6503	20.01766
2.412500	101.9940	20.01620
2.420834	102.3456	20.01472
2.429166	102.6946	20.01324
2.437500	103.0410	20.01172
2.445834	103.3875	20.01018
2.454166	103.7295	20.00866
2.462500	104.0765	20.00709
2.470833	104.4230	20.00551
2.479167	104.7668	20.00391
2.487500	105.1093	20.00230
2.495834	105.4534	20.00067
2.504166	105.7979	19.99905
2.512500	106.1392	19.99744
2.520833	106.4809	19.99578
2.529167	106.8220	19.99417
2.537500	107.1651	19.99258
2.545834	107.5057	19.99094
2.554166	107.8486	19.98928
2.562500	108.1880	19.98761
2.570834	108.5256	19.98592
2.579166	108.8651	19.98422
2.587500	109.2063	19.98248
2.595833	109.5423	19.98074
2.604167	109.8798	19.97902
2.612500	110.2203	19.97726
2.620834	110.5542	19.97547
2.629166	110.8939	19.97372
2.637500	111.2306	19.97198
2.645833	111.5632	19.97022
2.654167	111.8988	19.96848
2.662500	112.2352	19.96672
2.670834	112.5713	19.96495
2.679166	112.9015	19.96319
2.687500	113.2376	19.96142
2.695834	113.5740	19.95961
2.704166	113.9046	19.95783
2.712500	114.2384	19.95605
2.720833	114.5707	19.95419
2.729167	114.9008	19.95236
2.737500	115.2359	19.95053
2.745834	115.5702	19.94873
2.754166	115.9024	19.94695
2.762500	116.2340	19.94510
2.770833	116.5620	19.94324
2.779167	116.8940	19.94141
2.787500	117.2262	19.93953
2.795834	117.5567	19.93762
2.804166	117.8845	19.93576
2.812500	118.2127	19.93384
2.820834	118.5446	19.93190
2.829166	118.8731	19.92996
2.837500	119.2011	19.92798
2.845833	119.5322	19.92606
2.854167	119.8582	19.92414
2.862500	120.1854	19.92221
2.870834	120.5126	19.92016
2.879166	120.8346	19.91751
2.887500	121.1573	19.91386
2.895833	121.4769	19.90959
2.904167	121.7992	19.90516
2.912500	122.1185	19.90072
2.920834	122.4424	19.89627
2.929166	122.7646	19.89181
2.937500	123.0850	19.88736
2.945834	123.4087	19.88290
2.954166	123.7346	19.87853
2.962500	124.0529	19.87474
2.970833	124.3752	19.87193
2.979167	124.6967	19.86978
2.987500	125.0192	19.86776
2.995834	125.3404	19.86574
3.004166	125.6614	19.86373
3.012500	125.9830	19.86172
3.020833	126.3042	19.85967
3.029167	126.6252	19.85762
3.037500	126.9456	19.85559
3.045834	127.2684	19.85358
3.054166	127.5860	19.85160
3.062500	127.9070	19.84959
3.070834	128.2300	19.84756
3.079166	128.5491	19.84551
3.087500	128.8720	19.84346
3.095833	129.1905	19.84140
3.104167	129.5080	19.83937
3.112500	129.8316	19.83737
3.120834	130.1525	19.83530
3.129166	130.4715	19.83322
3.137500	130.7898	19.83111
3.145833	131.1117	19.82902
3.154167	131.4319	19.82694
3.162500	131.7529	19.82483
3.170834	132.0746	19.82272
3.179166	132.3906	19.82062
3.187500	132.7111	19.81848
3.195834	133.0308	19.81635
3.204167	133.3519	19.81428
3.212500	133.6722	19.81221
3.220833	133.9891	19.81015
3.229167	134.3102	19.80806
3.237500	134.6319	19.80598
3.245834	134.9515	19.80395
3.254166	135.2707	19.80189
3.262500	135.5923	19.79976
3.270833	135.9087	19.79762
3.279167	136.2288	19.79548
3.287500	136.5463	19.79334
3.295833	136.8684	19.79118
3.304166	137.1874	19.78902
3.312500	137.5059	19.78685
3.320834	137.8280	19.78467
3.329167	138.1482	19.78251
3.337500	138.4673	19.78035
3.345833	138.7864	19.77820
3.354167	139.1049	19.77605
3.362500	139.4255	19.77388
3.370834	139.7476	19.77169
3.379166	140.0642	19.76952
3.387500	140.3846	19.76735
3.395833	140.7048	19.76521
3.404167	141.0251	19.76306
3.412500	141.3468	19.76089
3.420833	141.6665	19.75875
3.429166	141.9856	19.75661
3.437500	142.3067	19.75445
3.445834	142.6272	19.75229
3.454167	142.9440	19.75013
3.462500	143.2666	19.74798
3.470833	143.5873	19.74579
3.479167	143.9069	19.74362
3.487500	144.2259	19.74145
3.495834	144.5471	19.73926
3.504166	144.8653	19.73702
3.512500	145.1843	19.73483
3.520833	145.5081	19.73267
3.529167	145.8305	19.73050
3.537500	146.1508	19.72834
3.545833	146.4705	19.72618
3.554166	146.7894	19.72404
3.562500	147.1102	19.72188
3.570834	147.4309	19.71970
3.579167	147.7536	19.71754
3.587500	148.0722	19.71538
3.595833	148.3948	19.71316
3.604167	148.7150	19.71099
3.612500	149.0359	19.70882
3.620834	149.3581	19.70661
3.629166	149.6790	19.70439
3.637500	150.0014	19.70219
3.645833	150.3249	19.69998
3.654167	150.6452	19.69776
3.662500	150.9697	19.69554
3.670833	151.2876	19.69336
3.679166	151.6094	19.69116
3.687500	151.9339	19.68891
3.695834	152.2544	19.68665
3.704167	152.5783	19.68440
3.712500	152.9004	19.68211
3.720833	153.2226	19.67980
3.729167	153.5431	19.67753
3.737500	153.8684	19.67529
3.745834	154.1897	19.67303
3.754166	154.5126	19.67076
3.762500	154.8358	19.66851
3.770833	155.1573	19.66628
3.779167	155.4816	19.66404
3.787500	155.8033	19.66182
3.795833	156.1263	19.65959
3.804166	156.4482	19.65735
3.812500	156.7722	19.65506
3.820834	157.0968	19.65277
3.829167	157.4192	19.65045
3.837500	157.7435	19.64816
3.845833	158.0634	19.64587
3.854167	158.3896	19.64355
3.862500	158.7121	19.64120
3.870834	159.0369	19.63887
3.879166	159.3623	19.63656
3.887500	159.6873	19.63424
3.895833	160.0112	19.63194
3.904167	160.3330	19.62962
3.912500	160.6594	19.62727
3.920833	160.9834	19.62492
3.929166	161.3094	19.62258
3.937500	161.6312	19.62027
3.945834	161.9564	19.61798
3.954167	162.2823	19.61567
3.962500	162.6060	19.61332
3.970833	162.9340	19.61096
3.979167	163.2582	19.60861
3.987500	163.5854	19.60627
3.995834	163.9065	19.60398
4.004166	164.2361	19.60166
4.012500	164.5621	19.59929
4.020834	164.8850	19.59689
4.029167	165.2131	19.59446
4.037500	165.5401	19.59206
4.045833	165.8628	19.58969
4.054167	166.1905	19.58728
4.062500	166.5141	19.58487
4.070833	166.8374	19.58246
4.079167	167.1652	19.58003
4.087500	167.4931	19.57759
4.095833	167.8195	19.57515
4.104166	168.1472	19.57269
4.112500	168.4750	19.57024
4.120834	168.8031	19.56782
4.129166	169.1270	19.56538
4.137500	169.4566	19.56292
4.145834	169.7838	19.56047
4.154167	170.1088	19.55800
4.162500	170.4353	19.55551
4.170833	170.7630	19.55302
4.179167	171.0888	19.55052
4.187500	171.4172	19.54806
4.195833	171.7463	19.54560
4.204167	172.0740	19.54308
4.212500	172.4012	19.54053
4.220833	172.7275	19.53801
4.229166	173.0569	19.53548
4.237500	173.3866	19.53297
4.245834	173.7095	19.53043
4.254166	174.0401	19.52789
4.262500	174.3674	19.52534
4.270834	174.7008	19.52279
4.279167	175.0277	19.52026
4.287500	175.3552	19.51772
4.295833	175.6811	19.51517
4.304167	176.0111	19.51262
4.312500	176.3395	19.51003
4.320833	176.6686	19.50742
4.329167	176.9958	19.50487
4.337500	177.3279	19.50226
4.345833	177.6556	19.49968
4.354166	177.9844	19.49709
4.362500	178.3141	19.49445
4.370834	178.6435	19.49180
4.379166	178.9744	19.48919
4.387500	179.3034	19.48660
4.395834	179.6320	19.48399
4.404167	179.9626	19.48134
4.412500	180.2936	19.47865
4.420833	180.6237	19.47601
4.429167	180.9534	19.47336
4.437500	181.2830	19.47069
4.445833	181.6134	19.46804
4.454167	181.9428	19.46540
4.462500	182.2758	19.46273
4.470833	182.6041	19.46006
4.479166	182.9310	19.45742
4.487500	183.2638	19.45477
4.495834	183.5944	19.45215
4.504166	183.9257	19.44953
4.512500	184.2574	19.44692
4.520834	184.5878	19.44426
4.529167	184.9175	19.44158
4.537500	185.2480	19.43889
4.545833	185.5802	19.43619
4.554167	185.9125	19.43344
4.562500	186.2437	19.43067
4.570833	186.5751	19.42794
4.579167	186.9066	19.42521
4.587500	187.2380	19.42246
4.595833	187.5708	19.41970
4.604166	187.9025	19.41697
4.612500	188.2334	19.41424
4.620834	188.5648	19.41153
4.629166	188.8986	19.40884
4.637500	189.2287	19.40615
4.645834	189.5642	19.40348
4.654167	189.8937	19.40078
4.662500	190.2260	19.39807
4.670833	190.5621	19.39536
4.679167	190.8925	19.39262
4.687500	191.2274	19.38987
4.695833	191.5589	19.38712
4.704167	191.8927	19.38433
4.712500	192.2246	19.38154
4.720833	192.5605	19.37880
4.729166	192.8911	19.37599
4.737500	193.2246	19.37319
4.745834	193.5560	19.37041
4.754166	193.8895	19.36760
4.762500	194.2224	19.36480
4.770834	194.5574	19.36203
4.779167	194.8906	19.35925
4.787500	195.2249	19.35648
4.795833	195.5574	19.35370
4.804167	195.8937	19.35091
4.812500	196.2281	19.34814
4.820833	196.5637	19.34534
4.829167	196.8980	19.34254
4.837500	197.2291	19.33975
4.845833	197.5624	19.33695
4.854166	197.8984	19.33417
4.862500	198.2326	19.33137
4.870834	198.5703	19.32860
4.879166	198.9045	19.32582
4.887500	199.2376	19.32302
4.895834	199.5751	19.32021
4.904167	199.9114	19.31742
4.912500	200.2453	19.31460
4.920833	200.5807	19.31179
4.929167	200.9132	19.30897
4.937500	201.2516	19.30609
4.945833	201.5847	19.30319
4.954167	201.9225	19.30028
4.962500	202.2594	19.29735
4.970833	202.5978	19.29447
4.979166	202.9312	19.29154
4.987500	203.2665	19.28863
4.995834	203.6020	19.28577
5.004166	203.9373	19.28286
5.012500	204.2741	19.27996
5.020834	204.6109	19.27709
5.029167	204.9434	19.27425
5.037500	205.2818	19.27142
5.045833	205.6181	19.26856
5.054167	205.9557	19.26565
5.062500	206.2927	19.26277
5.070833	206.6292	19.25988
5.079167	206.9638	19.25696
5.087500	207.3030	19.25405
5.095833	207.6403	19.25114
5.104166	207.9751	19.24820
5.112500	208.3132	19.24525
5.120834	208.6498	19.24230
5.129166	208.9858	19.23934
5.137500	209.3239	19.23639
5.145834	209.6592	19.23346
5.154167	209.9950	19.23050
5.162500	210.3298	19.22753
5.170833	210.6706	19.22454
5.179167	211.0075	19.22152
5.187500	211.3482	19.21852
5.195833	211.6814	19.21552
5.204167	212.0202	19.21250
5.212500	212.3573	19.20949
5.220833	212.6955	19.20644
5.229166	213.0308	19.20338
5.237500	213.3711	19.20031
5.245834	213.7090	19.19726
5.254166	214.0473	19.19420
5.262500	214.3835	19.19110
5.270834	214.7220	19.18801
5.279168	215.0622	19.18489
5.287500	215.3966	19.18178
5.295832	215.7346	19.17865
5.304168	216.0744	19.17551
5.312500	216.4120	19.17237
5.320832	216.7507	19.16920
5.329168	217.0898	19.16601
5.337500	217.4278	19.16285
5.345832	217.7668	19.15972
5.354166	218.1038	19.15648
5.362500	218.4419	19.15322
5.370834	218.7809	19.14998
5.379166	219.1209	19.14669
5.387500	219.4586	19.14339
5.395834	219.7992	19.14012
5.404168	220.1380	19.13684
5.412500	220.4767	19.13354
5.420832	220.8165	19.13019
5.429168	221.1567	19.12683
5.437500	221.4948	19.12353
5.445832	221.8326	19.12017
5.454168	222.1716	19.11671
5.462500	222.5114	19.11331
5.470832	222.8508	19.10989
5.479166	223.1897	19.10638
5.487500	223.5308	19.10287
5.495834	223.8706	19.09934
5.504166	224.2094	19.09580
5.512500	224.5510	19.09224
5.520834	224.8889	19.08863
5.529168	225.2296	19.08504
5.537500	225.5684	19.08147
5.545832	225.9055	19.07783
5.554168	226.2476	19.07414
5.562500	226.5882	19.07040
5.570832	226.9280	19.06668
5.579168	227.2704	19.06294
5.587500	227.6077	19.05909
5.595832	227.9490	19.05521
5.604166	228.2869	19.05134
5.612500	228.6304	19.04741
5.620834	228.9698	19.04345
5.629166	229.3092	19.03945
5.637500	229.6542	19.03542
5.645834	229.9935	19.03135
5.654168	230.3331	19.02716
5.662500	230.6739	19.02292
5.670832	231.0161	19.01868
5.679168	231.3584	19.01438
5.687500	231.6974	19.01002
5.695832	232.0394	19.00554
5.704168	232.3785	19.00099
5.712500	232.7231	18.99633
5.720832	233.0628	18.99160
5.729166	233.4055	18.98679
5.737500	233.7458	18.98187
5.745834	234.0899	18.97684
5.754166	234.4306	18.97171
5.762500	234.7711	18.96638
5.770834	235.1100	18.96088
5.779168	235.4541	18.95531
5.787500	235.7976	18.94960
5.795832	236.1391	18.94372
5.804168	236.4825	18.93767
5.812500	236.8246	18.93141
5.820832	237.1673	18.92500
5.829168	237.5054	18.91837
5.837500	237.8533	18.91153
5.845832	238.1943	18.90456
5.854166	238.5358	18.89744
5.862500	238.8793	18.89010
5.870834	239.2192	18.88256
5.879166	239.5633	18.87482
5.887500	239.9050	18.86694
5.895834	240.2494	18.85891
5.904168	240.5924	18.85066
5.912500	240.9358	18.84225
5.920832	241.2795	18.83364
5.929168	241.6238	18.82484
5.937500	241.9624	18.81586
5.945832	242.3062	18.80668
5.954168	242.6476	18.79736
5.962500	242.9923	18.78791
5.970832	243.3332	18.77825
5.979166	243.6768	18.76843
5.987500	244.0168	18.75847
5.995834	244.3620	18.74836
6.004166	244.7035	18.73812
6.012500	245.0475	18.72771
6.020834	245.3898	18.71711
6.029168	245.7308	18.70636
6.037500	246.0787	18.69544
6.045832	246.4200	18.68431
6.054168	246.7601	18.67303
6.062500	247.1035	18.66159
6.070832	247.4471	18.64993
6.079168	247.7914	18.63808
6.087500	248.1350	18.62607
6.095832	248.4776	18.61387
6.104166	248.8214	18.60150
6.112500	249.1619	18.58894
6.120834	249.5060	18.57622
6.129166	249.8478	18.56331
6.137500	250.1912	18.55021
6.145834	250.5358	18.53692
6.154168	250.8782	18.52347
6.162500	251.2220	18.50981
6.170832	251.5648	18.49592
6.179168	251.9094	18.48186
6.187500	252.2546	18.46759
6.195832	252.5943	18.45311
6.204168	252.9408	18.43838
6.212500	253.2816	18.42341
6.220832	253.6236	18.40824
6.229166	253.9674	18.39284
6.237500	254.3122	18.37717
6.245834	254.6566	18.36128
6.254166	255.0018	18.34516
6.262500	255.3435	18.32878
6.270834	255.6878	18.31214
6.279168	256.0299	18.29523
6.287500	256.3784	18.27809
6.295832	256.7206	18.26074
6.304168	257.0652	18.24315
6.312500	257.4094	18.22528
6.320832	257.7526	18.20718
6.329168	258.0989	18.18881
6.337500	258.4432	18.17016
6.345832	258.7862	18.15129
6.354166	259.1342	18.13219
6.362500	259.4797	18.11278
6.370834	259.8230	18.09311
6.379166	260.1696	18.07316
6.387500	260.5137	18.05288
6.395834	260.8614	18.03236
6.404166	261.2067	18.01156
6.412500	261.5503	17.99051
6.420832	261.8952	17.96919
6.429168	262.2413	17.94757
6.437500	262.5890	17.92565
6.445832	262.9351	17.90349
6.454168	263.2835	17.88109
6.462500	263.6295	17.85836
6.470834	263.9764	17.83535
6.479166	264.3232	17.81211
6.487500	264.6685	17.78864
6.495834	265.0184	17.76494
6.504166	265.3628	17.74097
6.512500	265.7089	17.71674
6.520834	266.0570	17.69232
6.529166	266.4053	17.66768
6.537500	266.7542	17.64279
6.545832	267.0987	17.61773
6.554168	267.4478	17.59248
6.562500	267.7964	17.56704
6.570832	268.1452	17.54138
6.579168	268.4928	17.51552
6.587500	268.8413	17.48951
6.595834	269.1866	17.46338
6.604166	269.5357	17.43709
6.612500	269.8856	17.41067
6.620834	270.2331	17.38414
6.629166	270.5805	17.35750
6.637500	270.9254	17.33077
6.645834	271.2761	17.30392
6.654166	271.6256	17.27701
6.662500	271.9758	17.25002
6.670832	272.3222	17.22295
6.679168	272.6718	17.19580
6.687500	273.0217	17.16865
6.695832	273.3688	17.14145
6.704168	273.7161	17.11422
6.712500	274.0659	17.08702
6.720834	274.4154	17.05979
6.729166	274.7644	17.03258
6.737500	275.1135	17.00537
6.745834	275.4627	16.97819
6.754166	275.8102	16.95106
6.762500	276.1594	16.92398
6.770834	276.5061	16.89691
6.779166	276.8550	16.86988
6.787500	277.2031	16.84292
6.795832	277.5504	16.81600
6.804168	277.9010	16.78911
6.812500	278.2488	16.76233
6.820832	278.5964	16.73566
6.829168	278.9459	16.70906
6.837500	279.2928	16.68254
6.845834	279.6424	16.65611
6.854166	279.9894	16.62978
6.862500	280.3371	16.60360
6.870834	280.6850	16.57756
6.879166	281.0348	16.55159
6.887500	281.3814	16.52573
6.895834	281.7290	16.49996
6.904166	282.0763	16.47427
6.912500	282.4240	16.44870
6.920832	282.7695	16.42332
6.929168	283.1170	16.39803
6.937500	283.4636	16.37286
6.945832	283.8117	16.34776
6.954168	284.1572	16.32282
6.962500	284.5034	16.29800
6.970834	284.8505	16.27334
6.979166	285.1945	16.24883
6.987500	285.5408	16.22445
6.995834	285.8860	16.20020
7.004166	286.2337	16.17602
7.012500	286.5795	16.15202
7.020834	286.9226	16.12817
7.029166	287.2663	16.10446
7.037500	287.6126	16.08084
7.045832	287.9582	16.05738
7.054168	288.3000	16.03406
7.062500	288.6452	16.01084
7.070832	288.9898	15.98778
7.079168	289.3320	15.96482
7.087500	289.6800	15.94203
7.095834	290.0196	15.91935
7.104166	290.3636	15.89681
7.112500	290.7076	15.87438
7.120834	291.0500	15.85206
7.129166	291.3929	15.82990
7.137500	291.7366	15.80786
7.145834	292.0787	15.78598
7.154166	292.4195	15.76426
7.162500	292.7610	15.74269
7.170832	293.1055	15.72123
7.179168	293.4452	15.69989
7.187500	293.7863	15.67862
7.195832	294.1275	15.65747
7.204168	294.4697	15.63652
7.212500	294.8088	15.61566
7.220834	295.1480	15.59491
7.229166	295.4942	15.57430
7.237500	295.8330	15.55378
7.245834	296.1743	15.53344
7.254166	296.5139	15.51323
7.262500	296.8540	15.49311
7.270834	297.1943	15.47319
7.279166	297.5338	15.45341
7.287500	297.8725	15.43371
7.295832	298.2150	15.41416
7.304168	298.5540	15.39474
7.312500	298.8978	15.37542
7.320832	299.2355	15.35620
7.329168	299.5680	15.33705
7.337500	299.9066	15.31802
7.345834	300.2470	15.29914
7.354166	300.5834	15.28038
7.362500	300.9232	15.26176
7.370834	301.2573	15.24324
7.379166	301.5945	15.22484
7.387500	301.9328	15.20653
7.395834	302.2717	15.18834
7.404166	302.6080	15.17030
7.412500	302.9458	15.15238
7.420832	303.2822	15.13458
7.429168	303.6203	15.11687
7.437500	303.9560	15.09924
7.445832	304.2934	15.08172
7.454168	304.6290	15.06432
7.462500	304.9668	15.04706
7.470834	305.3027	15.02994
7.479166	305.6368	15.01295
7.487500	305.9738	14.99608
7.495834	306.3095	14.97931
7.504166	306.6455	14.96266
7.512500	306.9803	14.94612
7.520834	307.3172	14.92970
7.529166	307.6507	14.91341
7.537500	307.9860	14.89722
7.545832	308.3190	14.88112
7.554168	308.6558	14.86512
7.562500	308.9919	14.84920
7.570832	309.3254	14.83338
7.579168	309.6615	14.81767
7.587500	309.9962	14.80206
7.595834	310.3312	14.78652
7.604166	310.6673	14.77111
7.612500	310.9980	14.75579
7.620834	311.3340	14.74056
7.629166	311.6690	14.72541
7.637500	312.0016	14.71037
7.645834	312.3360	14.69541
7.654166	312.6704	14.68051
7.662500	313.0024	14.66571
7.670832	313.3358	14.65101
7.679168	313.6706	14.63641
7.687500	314.0047	14.62190
7.695832	314.3383	14.60745
7.704168	314.6698	14.59314
7.712500	315.0051	14.57892
7.720834	315.3369	14.56475
7.729166	315.6714	14.55069
7.737500	316.0036	14.53672
7.745834	316.3390	14.52278
7.754166	316.6704	14.50890
7.762500	317.0039	14.49512
7.770834	317.3369	14.48142
7.779166	317.6700	14.46780
7.787500	318.0020	14.45421
7.795832	318.3365	14.44068
7.804168	318.6684	14.42724
7.812500	319.0020	14.41384
7.820832	319.3344	14.40051
7.829168	319.6671	14.38724
7.837500	320.0000	14.37402
7.845834	320.3346	14.36085
7.854166	320.6635	14.34773
7.862500	320.9988	14.33466
7.870834	321.3312	14.32166
7.879166	321.6631	14.30869
7.887500	321.9974	14.29576
7.895834	322.3298	14.28290
7.904166	322.6625	14.27008
7.912500	322.9961	14.25730
7.920832	323.3281	14.24456
7.929168	323.6619	14.23184
7.937500	323.9940	14.21916
7.945832	324.3281	14.20651
7.954168	324.6586	14.19387
7.962500	324.9927	14.18128
7.970834	325.3234	14.16871
7.979166	325.6567	14.15613
7.987500	325.9896	14.14361
7.995834	326.3233	14.13114
8.004166	326.6564	14.11869
8.012500	326.9898	14.10626
8.020832	327.3218	14.09385
8.029166	327.6522	14.08141
8.037500	327.9853	14.06897
8.045834	328.3183	14.05656
8.054168	328.6539	14.04418
8.062500	328.9830	14.03180
8.070832	329.3189	14.01941
8.079166	329.6487	14.00696
8.087500	329.9815	13.99454
8.095834	330.3188	13.98214
8.104168	330.6509	13.96972
8.112500	330.9806	13.95732
8.120834	331.3157	13.94493
8.129166	331.6482	13.93251
8.137500	331.9828	13.92008
8.145832	332.3155	13.90765
8.154166	332.6490	13.89522
8.162500	332.9805	13.88283
8.170834	333.3150	13.87039
8.179168	333.6485	13.85791
8.187500	333.9791	13.84542
8.195832	334.3137	13.83290
8.204166	334.6455	13.82035
8.212500	334.9834	13.80775
8.220834	335.3133	13.79513
8.229168	335.6480	13.78249
8.237500	335.9803	13.76979
8.245834	336.3134	13.75704
8.254166	336.6459	13.74428
8.262500	336.9789	13.73149
8.270832	337.3145	13.71864
8.279166	337.6494	13.70575
8.287500	337.9790	13.69284
8.295834	338.3149	13.67989
8.304168	338.6504	13.66685
8.312500	338.9832	13.65374
8.320832	339.3165	13.64060
8.329166	339.6486	13.62744
8.337500	339.9830	13.61417
8.345834	340.3184	13.60083
8.354168	340.6500	13.58749
8.362500	340.9844	13.57403
8.370834	341.3184	13.56046
8.379166	341.6519	13.54686
8.387500	341.9892	13.53320
8.395832	342.3193	13.51947
8.404166	342.6545	13.50564
8.412500	342.9870	13.49170
8.420834	343.3243	13.47773
8.429168	343.6562	13.46368
8.437500	343.9926	13.44952
8.445832	344.3262	13.43531
8.454166	344.6628	13.42101
8.462500	344.9967	13.40659
8.470834	345.3306	13.39214
8.479168	345.6670	13.37759
8.487500	346.0004	13.36291
8.495834	346.3344	13.34811
8.504166	346.6703	13.33322
8.512500	347.0028	13.31824
8.520832	347.3384	13.30312
8.529166	347.6728	13.28788
8.537500	348.0098	13.27258
8.545834	348.3440	13.25713
8.554168	348.6798	13.24151
8.562500	349.0126	13.22577
8.570832	349.3492	13.20996
8.579166	349.6855	13.19404
8.587500	350.0187	13.17796
8.595834	350.3572	13.16174
8.604168	350.6922	13.14542
8.612500	351.0266	13.12895
8.620834	351.3650	13.11232
8.629166	351.7004	13.09555
8.637500	352.0362	13.07867
8.645832	352.3690	13.06163
8.654166	352.7063	13.04442
8.662500	353.0412	13.02709
8.670834	353.3784	13.00962
8.679168	353.7123	12.99202
8.687500	354.0479	12.97426
8.695832	354.3843	12.95634
8.704166	354.7233	12.93831
8.712500	355.0585	12.92017
8.720834	355.3945	12.90190
8.729168	355.7303	12.88349
8.737500	356.0668	12.86490
8.745834	356.4037	12.84615
8.754166	356.7390	12.82724
8.762500	357.0793	12.80818
8.770832	357.4142	12.78898
8.779166	357.7510	12.76970
8.787500	358.0869	12.75024
8.795834	358.4230	12.73062
8.804168	358.7617	12.71086
8.812500	359.0995	12.69096
8.820832	359.4358	12.67097
8.829166	359.7761	12.65085
8.837500	360.1149	12.63060
8.845834	360.4502	12.61024
8.854168	360.7865	12.58976
8.862500	361.1226	12.56914
8.870834	361.4594	12.54844
8.879166	361.7985	12.52768
8.887500	362.1354	12.50680
8.895832	362.4728	12.48580
8.904166	362.8086	12.46474
8.912500	363.1468	12.44362
8.920834	363.4852	12.42243
8.929168	363.8242	12.40113
8.937500	364.1604	12.37978
8.945832	364.4998	12.35840
8.954166	364.8361	12.33697
8.962500	365.1738	12.31548
8.970834	365.5119	12.29396
8.979168	365.8494	12.27246
8.987500	366.1894	12.25096
8.995834	366.5268	12.22946
9.004166	366.8632	12.20798
9.012500	367.1993	12.18655
9.020832	367.5384	12.16511
9.029166	367.8764	12.14368
9.037500	368.2145	12.12233
9.045834	368.5542	12.10101
9.054168	368.8935	12.07976
9.062500	369.2290	12.05858
9.070832	369.5670	12.03751
9.079166	369.9017	12.01651
9.087500	370.2405	11.99561
9.095834	370.5792	11.97486
9.104168	370.9162	11.95427
9.112500	371.2516	11.93383
9.120834	371.5891	11.91348
9.129166	371.9252	11.89330
9.137500	372.2630	11.87330
9.145832	372.5991	11.85346
9.154166	372.9381	11.83376
9.162500	373.2738	11.81423
9.170834	373.6119	11.79490
9.179168	373.9502	11.77571
9.187500	374.2870	11.75670
9.195832	374.6212	11.73790
9.204166	374.9584	11.71930
9.212500	375.2958	11.70090
9.220834	375.6309	11.68274
9.229168	375.9662	11.66482
9.237500	376.3035	11.64712
9.245834	376.6386	11.62966
9.254166	376.9756	11.61247
9.262500	377.3125	11.59551
9.270832	377.6469	11.57881
9.279166	377.9809	11.56238
9.287500	378.3181	11.54620
9.295834	378.6526	11.53029
9.304168	378.9874	11.51463
9.312500	379.3228	11.49921
9.320832	379.6588	11.48404
9.329166	379.9920	11.46911
9.337500	380.3252	11.45445
9.345834	380.6634	11.44007
9.354168	380.9984	11.42594
9.362500	381.3318	11.41204
9.370834	381.6672	11.39840
9.379166	382.0006	11.38502
9.387500	382.3350	11.37186
9.395832	382.6710	11.35891
9.404166	383.0013	11.34623
9.412500	383.3361	11.33383
9.420834	383.6706	11.32162
9.429168	384.0032	11.30966
9.437500	384.3394	11.29794
9.445832	384.6703	11.28644
9.454166	385.0022	11.27518
9.462500	385.3372	11.26409
9.470834	385.6668	11.25322
9.479168	386.0025	11.24261
9.487500	386.3337	11.23218
9.495834	386.6658	11.22189
9.504166	386.9979	11.21182
9.512500	387.3319	11.20191
9.520832	387.6622	11.19218
9.529166	387.9948	11.18263
9.537500	388.3274	11.17325
9.545834	388.6600	11.16405
9.554168	388.9910	11.15499
9.562500	389.3239	11.14608
9.570832	389.6544	11.13732
9.579166	389.9876	11.12870
9.587500	390.3189	11.12022
9.595834	390.6499	11.11187
9.604168	390.9806	11.10364
9.612500	391.3153	11.09554
9.620834	391.6467	11.08754
9.629166	391.9790	11.07961
9.637500	392.3098	11.07184
9.645832	392.6419	11.06415
9.654166	392.9713	11.05654
9.662500	393.3044	11.04904
9.670834	393.6328	11.04166
9.679168	393.9683	11.03431
9.687500	394.2960	11.02703
9.695832	394.6289	11.01982
9.704166	394.9605	11.01270
9.712500	395.2922	11.00565
9.720834	395.6248	10.99862
9.729168	395.9546	10.99166
9.737500	396.2866	10.98478
9.745834	396.6178	10.97791
9.754166	396.9494	10.97102
9.762500	397.2795	10.96421
9.770832	397.6136	10.95747
9.779166	397.9428	10.95074
9.787500	398.2769	10.94404
9.795834	398.6095	10.93741
9.804168	398.9404	10.93084
9.812500	399.2699	10.92430
9.820832	399.6028	10.91775
9.829166	399.9333	10.91122
9.837500	400.2625	10.90481
9.845834	400.5952	10.89846
9.854168	400.9277	10.89206
9.862500	401.2592	10.88568
9.870834	401.5884	10.87932
9.879166	401.9220	10.87301
9.887500	402.2531	10.86666
9.895832	402.5869	10.86035
9.904166	402.9183	10.85413
9.912500	403.2494	10.84789
9.920834	403.5826	10.84159
9.929168	403.9134	10.83533
9.937500	404.2456	10.82914
9.945832	404.5774	10.82298
9.954166	404.9097	10.81683
9.962500	405.2406	10.81065
9.970834	405.5734	10.80449
9.979168	405.9064	10.79832
9.987500	406.2372	10.79213
9.995834	406.5702	10.78598
10.00417	406.9032	10.77984
10.01250	407.2366	10.77371
10.02083	407.5704	10.76759
10.02917	407.9018	10.76146
10.03750	408.2350	10.75535
10.04583	408.5676	10.74922
10.05417	408.9002	10.74311
10.06250	409.2339	10.73703
10.07083	409.5674	10.73095
10.07917	409.8972	10.72489
10.08750	410.2332	10.71884
10.09583	410.5661	10.71277
10.10417	410.8988	10.70670
10.11250	411.2320	10.70063
10.12083	411.5645	10.69459
10.12917	411.8998	10.68858
10.13750	412.2324	10.68255
10.14583	412.5672	10.67650
10.15417	412.9010	10.67048
10.16250	413.2330	10.66443
10.17083	413.5672	10.65837
10.17917	413.8998	10.65238
10.18750	414.2358	10.64638
10.19583	414.5688	10.64036
10.20417	414.9011	10.63432
10.21250	415.2375	10.62829
10.22083	415.5715	10.62227
10.22917	415.9045	10.61623
10.23750	416.2375	10.61020
10.24583	416.5698	10.60420
10.25417	416.9054	10.59819
10.26250	417.2412	10.59220
10.27083	417.5710	10.58622
10.27917	417.9074	10.58018
10.28750	418.2428	10.57416
10.29583	418.5765	10.56818
10.30417	418.9117	10.56219
10.31250	419.2424	10.55625
10.32083	419.5794	10.55032
10.32917	419.9158	10.54437
10.33750	420.2492	10.53840
10.34583	420.5816	10.53242
10.35417	420.9170	10.52643
10.36250	421.2528	10.52051
10.37083	421.5873	10.51458
10.37917	421.9214	10.50862
10.38750	422.2550	10.50268
10.39583	422.5904	10.49673
10.40417	422.9256	10.49078
10.41250	423.2596	10.48485
10.42083	423.5938	10.47891
10.42917	423.9303	10.47291
10.43750	424.2647	10.46693
10.44583	424.6026	10.46098
10.45417	424.9369	10.45509
10.46250	425.2690	10.44918
10.47083	425.6050	10.44322
10.47917	425.9395	10.43731
10.48750	426.2744	10.43139
10.49584	426.6084	10.42544
10.50416	426.9392	10.41952
10.51250	427.2762	10.41363
10.52083	427.6102	10.40774
10.52916	427.9515	10.40184
10.53750	428.2868	10.39590
10.54584	428.6206	10.38997
10.55417	428.9562	10.38410
10.56250	429.2922	10.37819
10.57083	429.6264	10.37228
10.57916	429.9625	10.36642
10.58750	430.2949	10.36056
10.59584	430.6310	10.35468
10.60417	430.9682	10.34878
10.61250	431.3032	10.34287
10.62084	431.6389	10.33700
10.62916	431.9747	10.33114
10.63750	432.3107	10.32522
10.64583	432.6444	10.31928
10.65416	432.9819	10.31339
10.66250	433.3178	10.30748
10.67084	433.6537	10.30157
10.67917	433.9877	10.29568
10.68750	434.3236	10.28982
10.69583	434.6580	10.28394
10.70416	434.9937	10.27805
10.71250	435.3297	10.27217
10.72084	435.6664	10.26632
10.72917	436.0007	10.26048
10.73750	436.3371	10.25460
10.74584	436.6696	10.24872
10.75416	437.0074	10.24286
10.76250	437.3420	10.23700
10.77083	437.6761	10.23117
10.77916	438.0131	10.22534
10.78750	438.3482	10.21950
10.79584	438.6828	10.21362
10.80417	439.0189	10.20774
10.81250	439.3545	10.20187
10.82083	439.6951	10.19601
10.82916	440.0274	10.19018
10.83750	440.3641	10.18437
10.84584	440.6942	10.17856
10.85417	441.0352	10.17271
10.86250	441.3683	10.16687
10.87084	441.7047	10.16105
10.87916	442.0416	10.15527
10.88750	442.3754	10.14949
10.89583	442.7100	10.14371
10.90416	443.0467	10.13791
10.91250	443.3833	10.13211
10.92084	443.7170	10.12632
10.92917	444.0528	10.12052
10.93750	444.3900	10.11472
10.94583	444.7242	10.10893
10.95416	445.0621	10.10313
10.96250	445.3974	10.09731
10.97084	445.7319	10.09149
10.97917	446.0696	10.08569
10.98750	446.4028	10.07990
10.99584	446.7403	10.07412
11.00416	447.0759	10.06832
11.01250	447.4115	10.06251
11.02083	447.7486	10.05672
11.02916	448.0836	10.05093
11.03750	448.4216	10.04513
11.04584	448.7533	10.03936
11.05417	449.0914	10.03361
11.06250	449.4261	10.02784
11.07083	449.7613	10.02207
11.07916	450.0984	10.01632
11.08750	450.4344	10.01060
11.09584	450.7708	10.00488
11.10417	451.1066	9.999139
11.11250	451.4408	9.993413
11.12084	451.7775	9.987701
11.12916	452.1120	9.981984
11.13750	452.4498	9.976274
11.14583	452.7846	9.970572
11.15416	453.1199	9.964852
11.16250	453.4550	9.959130
11.17084	453.7922	9.953406
11.17917	454.1258	9.947681
11.18750	454.4629	9.941957
11.19583	454.7969	9.936258
11.20416	455.1354	9.930549
11.21250	455.4684	9.924830
11.22084	455.8065	9.919149
11.22917	456.1410	9.913491
11.23750	456.4775	9.907795
11.24584	456.8130	9.902116
11.25416	457.1492	9.896445
11.26250	457.4812	9.890797
11.27083	457.8190	9.885172
11.27916	458.1551	9.879524
11.28750	458.4908	9.873879
11.29584	458.8269	9.868262
11.30417	459.1620	9.862603
11.31250	459.4970	9.856930
11.32083	459.8336	9.851318
11.32916	460.1683	9.845691
11.33750	460.5053	9.840035
11.34584	460.8418	9.834394
11.35417	461.1770	9.828765
11.36250	461.5110	9.823150
11.37084	461.8489	9.817559
11.37916	462.1835	9.811968
11.38750	462.5191	9.806384
11.39583	462.8553	9.800801
11.40416	463.1906	9.795181
11.41250	463.5258	9.789556
11.42084	463.8584	9.783980
11.42917	464.1946	9.778372
11.43750	464.5312	9.772784
11.44583	464.8660	9.767212
11.45416	465.1996	9.761632
11.46250	465.5380	9.756032
11.47084	465.8739	9.750455
11.47917	466.2082	9.744874
11.48750	466.5444	9.739331
11.49584	466.8806	9.733843
11.50416	467.2178	9.728325
11.51250	467.5468	9.722828
11.52083	467.8812	9.717299
11.52916	468.2186	9.711756
11.53750	468.5546	9.706234
11.54584	468.8926	9.700738
11.55417	469.2275	9.695250
11.56250	469.5626	9.689795
11.57083	469.9014	9.684320
11.57916	470.2371	9.678811
11.58750	470.5722	9.673311
11.59584	470.9056	9.667824
11.60417	471.2410	9.662345
11.61250	471.5772	9.656879
11.62084	471.9131	9.651426
11.62916	472.2469	9.645939
11.63750	472.5846	9.640455
11.64583	472.9158	9.634999
11.65416	473.2516	9.629531
11.66250	473.5869	9.624032
11.67084	473.9254	9.618501
11.67917	474.2588	9.613014
11.68750	474.5925	9.607553
11.69583	474.9285	9.602091
11.70416	475.2644	9.596634
11.71250	475.5994	9.591236
11.72084	475.9329	9.585814
11.72917	476.2680	9.580344
11.73750	476.6037	9.574932
11.74584	476.9406	9.569571
11.75416	477.2726	9.564231
11.76250	477.6094	9.558856
11.77083	477.9444	9.553464
11.77916	478.2780	9.548080
11.78750	478.6128	9.542697
11.79584	478.9494	9.537316
11.80417	479.2822	9.531951
11.81250	479.6180	9.526594
11.82083	479.9528	9.521226
11.82916	480.2872	9.515868
11.83750	480.6199	9.510528
11.84584	480.9574	9.505181
11.85417	481.2902	9.499855
11.86250	481.6247	9.494551
11.87084	481.9578	9.489249
11.87916	482.2941	9.483934
11.88750	482.6303	9.478644
11.89583	482.9643	9.473378
11.90416	483.2972	9.468116
11.91250	483.6315	9.462831
11.92084	483.9666	9.457564
11.92917	484.2997	9.452328
11.93750	484.6331	9.447119
11.94583	484.9678	9.441876
11.95416	485.3028	9.436598
11.96250	485.6367	9.431298
11.97084	485.9704	9.426026
11.97917	486.3040	9.420792
11.98750	486.6393	9.415566
11.99584	486.9754	9.410355
12.00416	487.3062	9.405138
12.01250	487.6426	9.399921
12.02083	487.9790	9.394684
12.02916	488.3106	9.389449
12.03750	488.6454	9.384276
12.04584	488.9784	9.379180
12.05417	489.3124	9.374063
12.06250	489.6490	9.368916
12.07083	489.9828	9.363806
12.07916	490.3168	9.358719
12.08750	490.6476	9.353680
12.09584	490.9822	9.348641
12.10417	491.3176	9.343619
12.11250	491.6531	9.338641
12.12084	491.9856	9.333686
12.12916	492.3208	9.328678
12.13750	492.6532	9.323652
12.14583	492.9876	9.318658
12.15416	493.3209	9.313652
12.16250	493.6575	9.308648
12.17084	493.9890	9.303641
12.17917	494.3252	9.298636
12.18750	494.6600	9.293641
12.19583	494.9922	9.288644
12.20416	495.3278	9.283640
12.21250	495.6620	9.278642
12.22084	495.9954	9.273668
12.22917	496.3300	9.268720
12.23750	496.6660	9.263762
12.24584	496.9970	9.258798
12.25416	497.3313	9.253882
12.26250	497.6644	9.248944
12.27083	498.0003	9.244019
12.27916	498.3350	9.239112
12.28750	498.6698	9.234216
12.29584	499.0020	9.229351
12.30417	499.3368	9.224512
12.31250	499.6713	9.219684
12.32083	500.0050	9.214888
12.32916	500.3392	9.210108
12.33750	500.6734	9.205291
12.34584	501.0078	9.200538
12.35417	501.3417	9.195786
12.36250	501.6748	9.191019
12.37084	502.0074	9.186249
12.37916	502.3412	9.181514
12.38750	502.6771	9.176785
12.39583	503.0122	9.172026
12.40416	503.3446	9.167278
12.41250	503.6772	9.162538
12.42084	504.0130	9.157808
12.42917	504.3460	9.153091
12.43750	504.6810	9.148369
12.44583	505.0174	9.143696
12.45416	505.3506	9.139062
12.46250	505.6838	9.134391
12.47084	506.0194	9.129722
12.47917	506.3530	9.125109
12.48750	506.6880	9.120494
12.49584	507.0218	9.115875
12.50416	507.3570	9.111284
12.51250	507.6910	9.106719
12.52083	508.0256	9.102160
12.52916	508.3594	9.097592
12.53750	508.6972	9.092980
12.54584	509.0290	9.088422
12.55417	509.3658	9.083944
12.56250	509.7008	9.079376
12.57083	510.0358	9.074836
12.57916	510.3690	9.070368
12.58750	510.7060	9.065851
12.59584	511.0404	9.061250
12.60417	511.3757	9.056719
12.61250	511.7088	9.052192
12.62084	512.0450	9.047734
12.62916	512.3818	9.043301
12.63750	512.7160	9.038772
12.64583	513.0518	9.034308
12.65416	513.3891	9.029908
12.66250	513.7220	9.025497
12.67084	514.0620	9.021078
12.67917	514.3946	9.016696
12.68750	514.7317	9.012297
12.69583	515.0666	9.007978
12.70416	515.4037	9.003610
12.71250	515.7404	8.999238
12.72084	516.0803	8.994945
12.72917	516.4164	8.990658
12.73750	516.7578	8.986345
12.74584	517.0966	8.982025
12.75416	517.4371	8.977759
12.76250	517.7756	8.973546
12.77083	518.1168	8.969312
12.77916	518.4579	8.965036
12.78750	518.7944	8.960821
12.79584	519.1396	8.956594
12.80417	519.4768	8.952374
12.81250	519.8136	8.948181
12.82083	520.1516	8.943976
12.82916	520.4879	8.939792
12.83750	520.8248	8.935603
12.84584	521.1625	8.931379
12.85417	521.4996	8.927196
12.86250	521.8350	8.923069
12.87083	522.1711	8.918939
12.87917	522.5097	8.914826
12.88750	522.8444	8.910719
12.89583	523.1803	8.906625
12.90416	523.5162	8.902518
12.91250	523.8506	8.898429
12.92084	524.1876	8.894395
12.92917	524.5207	8.890380
12.93750	524.8584	8.886405
12.94583	525.1928	8.882407
12.95416	525.5274	8.878363
12.96250	525.8621	8.874359
12.97084	526.1974	8.870370
12.97917	526.5309	8.866356
12.98750	526.8690	8.862411
12.99583	527.2016	8.858484
13.00417	527.5394	8.854539
13.01250	527.8736	8.850647
13.02083	528.2090	8.846734
13.02916	528.5426	8.842838
13.03750	528.8780	8.839011
13.04584	529.2128	8.835142
13.05417	529.5467	8.831255
13.06250	529.8820	8.827422
13.07083	530.2166	8.823569
13.07916	530.5512	8.819746
13.08750	530.8876	8.815986
13.09584	531.2230	8.812184
13.10417	531.5575	8.808382
13.11250	531.8926	8.804599
13.12083	532.2294	8.800851
13.12917	532.5615	8.797138
13.13750	532.8991	8.793468
13.14583	533.2324	8.789796
13.15416	533.5680	8.786132
13.16250	533.9026	8.782462
13.17084	534.2390	8.778741
13.17917	534.5740	8.775080
13.18750	534.9090	8.771455
13.19583	535.2454	8.767811
13.20416	535.5778	8.764149
13.21250	535.9137	8.760509
13.22084	536.2485	8.756855
13.22917	536.5857	8.753234
13.23750	536.9200	8.749644
13.24583	537.2551	8.746053
13.25417	537.5910	8.742514
13.26250	537.9242	8.739019
13.27083	538.2600	8.735535
13.27916	538.5941	8.732090
13.28750	538.9274	8.728663
13.29584	539.2626	8.725234
13.30417	539.5968	8.721828
13.31250	539.9324	8.718436
13.32083	540.2666	8.715051
13.32916	540.6026	8.711681
13.33750	540.9372	8.708312
13.34584	541.2700	8.704962
13.35417	541.6054	8.701595
13.36250	541.9404	8.698226
13.37083	542.2730	8.694889
13.37917	542.6086	8.691542
13.38750	542.9441	8.688205
13.39583	543.2782	8.684907
13.40416	543.6132	8.681618
13.41250	543.9480	8.678334
13.42084	544.2824	8.675063
13.42917	544.6176	8.671793
13.43750	544.9530	8.668553
13.44583	545.2870	8.665340
13.45416	545.6196	8.662134
13.46250	545.9555	8.658988
13.47084	546.2896	8.655842
13.47917	546.6254	8.652641
13.48750	546.9568	8.649474
13.49583	547.2932	8.646358
13.50417	547.6278	8.643236
13.51250	547.9620	8.640124
13.52083	548.2972	8.637045
13.52916	548.6328	8.633957
13.53750	548.9662	8.630864
13.54584	549.3002	8.627782
13.55417	549.6338	8.624731
13.56250	549.9687	8.621728
13.57083	550.3050	8.618719
13.57916	550.6389	8.615679
13.58750	550.9724	8.612648
13.59584	551.3060	8.609650
13.60417	551.6410	8.606664
13.61250	551.9748	8.603674
13.62083	552.3093	8.600714
13.62917	552.6470	8.597759
13.63750	552.9799	8.594811
13.64583	553.3144	8.591844
13.65416	553.6482	8.588882
13.66250	553.9804	8.585941
13.67084	554.3178	8.583009
13.67917	554.6514	8.580059
13.68750	554.9860	8.577088
13.69583	555.3193	8.574175
13.70416	555.6537	8.571262
13.71250	555.9866	8.568342
13.72084	556.3218	8.565421
13.72917	556.6560	8.562570
13.73750	556.9890	8.559769
13.74583	557.3232	8.556945
13.75417	557.6590	8.554108
13.76250	557.9921	8.551318
13.77083	558.3276	8.548544
13.77916	558.6610	8.545736
13.78750	558.9944	8.542931
13.79584	559.3276	8.540124
13.80417	559.6615	8.537389
13.81250	559.9970	8.534639
13.82083	560.3300	8.531837
13.82916	560.6660	8.529076
13.83750	560.9996	8.526368
13.84584	561.3332	8.523624
13.85417	561.6676	8.520890
13.86250	562.0037	8.518188
13.87083	562.3366	8.515516
13.87917	562.6718	8.512876
13.88750	563.0052	8.510168
13.89583	563.3394	8.507452
13.90416	563.6752	8.504772
13.91250	564.0070	8.502110
13.92084	564.3408	8.499438
13.92917	564.6728	8.496778
13.93750	565.0104	8.494129
13.94583	565.3424	8.491458
13.95416	565.6776	8.488769
13.96250	566.0097	8.486102
13.97084	566.3457	8.483499
13.97917	566.6780	8.480890
13.98750	567.0126	8.478272
13.99583	567.3445	8.475655
14.00417	567.6782	8.473039
14.01250	568.0137	8.470425
14.02083	568.3479	8.467825
14.02916	568.6824	8.465259
14.03750	569.0153	8.462704
14.04584	569.3474	8.460142
14.05417	569.6810	8.457562
14.06250	570.0142	8.454978
14.07083	570.3485	8.452408
14.07916	570.6812	8.449855
14.08750	571.0170	8.447304
14.09584	571.3468	8.444800
14.10417	571.6800	8.442288
14.11250	572.0144	8.439759
14.12083	572.3474	8.437231
14.12917	572.6818	8.434689
14.13750	573.0152	8.432142
14.14583	573.3484	8.429648
14.15416	573.6842	8.427172
14.16250	574.0166	8.424705
14.17084	574.3509	8.422251
14.17917	574.6838	8.419778
14.18750	575.0176	8.417335
14.19583	575.3516	8.414894
14.20416	575.6864	8.412449
14.21250	576.0190	8.410039
14.22084	576.3528	8.407624
14.22917	576.6846	8.405201
14.23750	577.0202	8.402816
14.24583	577.3505	8.400382
14.25417	577.6862	8.397962
14.26250	578.0201	8.395530
14.27083	578.3534	8.393100
14.27916	578.6850	8.390741
14.28750	579.0196	8.388390
14.29584	579.3535	8.386008
14.30417	579.6862	8.383666
14.31250	580.0220	8.381329
14.32083	580.3543	8.378956
14.32916	580.6876	8.376636
14.33750	581.0205	8.374310
14.34584	581.3539	8.371999
14.35417	581.6886	8.369675
14.36250	582.0232	8.367331
14.37083	582.3549	8.364982
14.37917	582.6887	8.362634
14.38750	583.0220	8.360321
14.39583	583.3531	8.357996
14.40416	583.6865	8.355651
14.41250	584.0211	8.353310
14.42084	584.3540	8.350994
14.42917	584.6868	8.348656
14.43750	585.0190	8.346371
14.44583	585.3528	8.344089
14.45416	585.6836	8.341816
14.46250	586.0180	8.339606
14.47084	586.3516	8.337372
14.47917	586.6855	8.335134
14.48750	587.0150	8.332910
14.49583	587.3488	8.330684
14.50417	587.6810	8.328453
14.51250	588.0132	8.326250
14.52083	588.3441	8.324018
14.52916	588.6786	8.321778
14.53750	589.0106	8.319579
14.54584	589.3420	8.317361
14.55417	589.6744	8.315138
14.56250	590.0053	8.312957
14.57083	590.3396	8.310806
14.57916	590.6734	8.308634
14.58750	591.0043	8.306468
14.59584	591.3376	8.304330
14.60417	591.6684	8.302188
14.61250	592.0019	8.300051
14.62083	592.3334	8.297884
14.62917	592.6642	8.295728
14.63750	592.9962	8.293593
14.64583	593.3310	8.291426
14.65416	593.6638	8.289257
14.66250	593.9955	8.287114
14.67084	594.3272	8.284964
14.67917	594.6597	8.282832
14.68750	594.9942	8.280702
14.69583	595.3270	8.278575
14.70416	595.6616	8.276476
14.71250	595.9920	8.274394
14.72084	596.3256	8.272285
14.72917	596.6556	8.270203
14.73750	596.9896	8.268106
14.74583	597.3224	8.266003
14.75417	597.6539	8.263922
14.76250	597.9863	8.261828
14.77083	598.3180	8.259754
14.77916	598.6532	8.257676
14.78750	598.9862	8.255588
14.79584	599.3172	8.253472
14.80417	599.6503	8.251382
14.81250	599.9852	8.249299
14.82083	600.3161	8.247257
14.82916	600.6488	8.245224
14.83750	600.9804	8.243178
14.84584	601.3130	8.241113
14.85417	601.6472	8.239050
14.86250	601.9802	8.236990
14.87083	602.3096	8.234955
14.87917	602.6428	8.232915
14.88750	602.9750	8.230876
14.89583	603.3072	8.228849
14.90416	603.6375	8.226782
14.91250	603.9714	8.224730
14.92084	604.3068	8.222687
14.92917	604.6366	8.220642
14.93750	604.9705	8.218605
14.94583	605.3048	8.216569
14.95416	605.6387	8.214512
14.96250	605.9702	8.212475
14.97084	606.3042	8.210446
14.97917	606.6342	8.208406
14.98750	606.9672	8.206387
14.99583	607.2989	8.204350
15.00417	607.6305	8.202311
15.01250	607.9654	8.200274
15.02083	608.2964	8.198239
15.02916	608.6306	8.196235
15.03750	608.9602	8.194247
15.04584	609.2918	8.192222
15.05417	609.6264	8.190174
15.06250	609.9590	8.188093
15.07083	610.2894	8.186010
15.07916	610.6215	8.183970
15.08750	610.9563	8.181934
15.09584	611.2865	8.179894
15.10417	611.6203	8.177852
15.11250	611.9516	8.175795
15.12083	612.2826	8.173710
15.12917	612.6144	8.171630
15.13750	612.9474	8.169522
15.14583	613.2766	8.167432
15.15416	613.6100	8.165360
15.16250	613.9410	8.163262
15.17084	614.2727	8.161162
15.17917	614.6059	8.159064
15.18750	614.9378	8.156970
15.19583	615.2711	8.154882
15.20416	615.6000	8.152813
15.21250	615.9344	8.150754
15.22084	616.2650	8.148726
15.22917	616.5970	8.146710
15.23750	616.9291	8.144656
15.24583	617.2630	8.142578
15.25417	617.5930	8.140488
15.26250	617.9238	8.138419
15.27083	618.2566	8.136339
15.27916	618.5892	8.134224
15.28750	618.9201	8.132099
15.29584	619.2508	8.130010
15.30417	619.5849	8.127905
15.31250	619.9150	8.125755
15.32083	620.2472	8.123630
15.32916	620.5816	8.121543
15.33750	620.9104	8.119446
15.34584	621.2401	8.117316
15.35417	621.5731	8.115142
15.36250	621.9052	8.112975
15.37083	622.2374	8.110806
15.37917	622.5674	8.108624
15.38750	622.8980	8.106444
15.39583	623.2293	8.104282
15.40416	623.5637	8.102112
15.41250	623.8932	8.099907
15.42084	624.2258	8.097706
15.42917	624.5568	8.095512
15.43750	624.8871	8.093334
15.44583	625.2178	8.091132
15.45416	625.5480	8.088915
15.46250	625.8796	8.086684
15.47084	626.2114	8.084436
15.47917	626.5394	8.082188
15.48750	626.8736	8.079940
15.49583	627.2031	8.077676
15.50417	627.5328	8.075394
15.51250	627.8680	8.073068
15.52083	628.1955	8.070743
15.52916	628.5274	8.068438
15.53750	628.8593	8.066132
15.54584	629.1884	8.063793
15.55417	629.5200	8.061472
15.56250	629.8506	8.059144
15.57083	630.1825	8.056788
15.57916	630.5140	8.054450
15.58750	630.8450	8.052082
15.59584	631.1753	8.049720
15.60417	631.5051	8.047368
15.61250	631.8355	8.044981
15.62083	632.1676	8.042566
15.62917	632.5000	8.040152
15.63750	632.8307	8.037714
15.64583	633.1639	8.035260
15.65416	633.4946	8.032830
15.66250	633.8234	8.030372
15.67084	634.1522	8.027951
15.67917	634.4872	8.025518
15.68750	634.8186	8.023058
15.69583	635.1492	8.020599
15.70416	635.4800	8.018151
15.71250	635.8082	8.015734
15.72084	636.1428	8.013305
15.72917	636.4711	8.010853
15.73750	636.8014	8.008368
15.74583	637.1328	8.005862
15.75417	637.4656	8.003311
15.76250	637.7967	8.000785
15.77083	638.1293	7.998234
15.77916	638.4610	7.995700
15.78750	638.7910	7.993128
15.79584	639.1238	7.990532
15.80417	639.4537	7.987968
15.81250	639.7866	7.985361
15.82083	640.1160	7.982728
15.82916	640.4484	7.980095
15.83750	640.7807	7.977463
15.84584	641.1130	7.974790
15.85417	641.4414	7.972153
15.86250	641.7747	7.969504
15.87083	642.1078	7.966839
15.87917	642.4370	7.964129
15.88750	642.7701	7.961392
15.89583	643.1016	7.958668
15.90416	643.4324	7.955948
15.91250	643.7660	7.953210
15.92084	644.0954	7.950463
15.92917	644.4293	7.947724
15.93750	644.7632	7.944970
15.94583	645.0926	7.942200
15.95416	645.4250	7.939418
15.96250	645.7572	7.936612
15.97084	646.0900	7.933772
15.97917	646.4218	7.930964
15.98750	646.7543	7.928152
15.99583	647.0854	7.925326
16.00417	647.4182	7.922518
16.01250	647.7505	7.919679
16.02084	648.0855	7.916784
16.02917	648.4160	7.913872
16.03750	648.7486	7.910971
16.04584	649.0814	7.908090
16.05417	649.4140	7.905200
16.06250	649.7460	7.902251
16.07083	650.0778	7.899284
16.07916	650.4108	7.896361
16.08750	650.7415	7.893386
16.09583	651.0755	7.890399
16.10416	651.4064	7.887441
16.11250	651.7377	7.884482
16.12083	652.0741	7.881495
16.12917	652.4048	7.878501
16.13750	652.7365	7.875504
16.14584	653.0682	7.872514
16.15417	653.4014	7.869538
16.16250	653.7350	7.866512
16.17084	654.0664	7.863481
16.17917	654.3988	7.860425
16.18750	654.7320	7.857309
16.19583	655.0627	7.854194
16.20416	655.3989	7.851089
16.21250	655.7309	7.847989
16.22083	656.0634	7.844876
16.22916	656.3956	7.841742
16.23750	656.7269	7.838624
16.24583	657.0603	7.835528
16.25417	657.3942	7.832384
16.26250	657.7245	7.829221
16.27084	658.0570	7.826096
16.27917	658.3898	7.822966
16.28750	658.7228	7.819809
16.29584	659.0543	7.816637
16.30417	659.3879	7.813468
16.31250	659.7202	7.810306
16.32083	660.0538	7.807103
16.32916	660.3850	7.803860
16.33750	660.7194	7.800684
16.34583	661.0500	7.797553
16.35416	661.3829	7.794378
16.36250	661.7150	7.791160
16.37083	662.0476	7.787936
16.37917	662.3805	7.784705
16.38750	662.7152	7.781480
16.39584	663.0462	7.778249
16.40417	663.3784	7.775000
16.41250	663.7097	7.771745
16.42084	664.0421	7.768469
16.42917	664.3747	7.765180
16.43750	664.7088	7.761901
16.44583	665.0408	7.758624
16.45416	665.3714	7.755359
16.46250	665.7047	7.752074
16.47083	666.0356	7.748757
16.47916	666.3668	7.745442
16.48750	666.7022	7.742124
16.49583	667.0312	7.738809
16.50417	667.3653	7.735500
16.51250	667.6970	7.732170
16.52084	668.0286	7.728860
16.52917	668.3595	7.725562
16.53750	668.6931	7.722240
16.54584	669.0245	7.718920
16.55417	669.3563	7.715610
16.56250	669.6889	7.712290
16.57083	670.0200	7.708958
16.57916	670.3524	7.705606
16.58750	670.6843	7.702253
16.59583	671.0153	7.698916
16.60416	671.3481	7.695554
16.61250	671.6772	7.692181
16.62083	672.0111	7.688811
16.62917	672.3429	7.685430
16.63750	672.6750	7.682044
16.64584	673.0060	7.678668
16.65417	673.3381	7.675306
16.66250	673.6696	7.671944
16.67084	674.0022	7.668551
16.67917	674.3330	7.665156
16.68750	674.6664	7.661765
16.69583	674.9991	7.658384
16.70416	675.3300	7.654980
16.71250	675.6621	7.651551
16.72083	675.9937	7.648154
16.72916	676.3242	7.644722
16.73750	676.6579	7.641278
16.74583	676.9882	7.637864
16.75417	677.3205	7.634480
16.76250	677.6530	7.631088
16.77084	677.9843	7.627694
16.77917	678.3176	7.624272
16.78750	678.6468	7.620884
16.79584	678.9784	7.617532
16.80417	679.3108	7.614143
16.81250	679.6430	7.610770
16.82083	679.9750	7.607420
16.82916	680.3087	7.604034
16.83750	680.6381	7.600616
16.84583	680.9719	7.597205
16.85416	681.3012	7.593780
16.86250	681.6335	7.590381
16.87083	681.9642	7.586964
16.87917	682.2988	7.583521
16.88750	682.6293	7.580082
16.89584	682.9620	7.576651
16.90417	683.2930	7.573192
16.91250	683.6238	7.569732
16.92084	683.9553	7.566259
16.92917	684.2886	7.562799
16.93750	684.6197	7.559356
16.94583	684.9507	7.555895
16.95416	685.2839	7.552472
16.96250	685.6157	7.549050
16.97083	685.9472	7.545600
16.97916	686.2798	7.542153
16.98750	686.6098	7.538755
16.99583	686.9437	7.535313
17.00417	687.2738	7.531901
17.01250	687.6070	7.528486
17.02084	687.9372	7.525078
17.02917	688.2704	7.521653
17.03750	688.6040	7.518178
17.04584	688.9350	7.514737
17.05417	689.2660	7.511360
17.06250	689.6000	7.507940
17.07083	689.9298	7.504466
17.07916	690.2629	7.501069
17.08750	690.5937	7.497670
17.09583	690.9280	7.494228
17.10416	691.2601	7.490778
17.11250	691.5908	7.487349
17.12083	691.9241	7.483925
17.12917	692.2562	7.480458
17.13750	692.5884	7.476980
17.14584	692.9195	7.473550
17.15417	693.2525	7.470109
17.16250	693.5855	7.466620
17.17084	693.9161	7.463145
17.17917	694.2476	7.459698
17.18750	694.5792	7.456226
17.19583	694.9131	7.452751
17.20416	695.2436	7.449310
17.21250	695.5775	7.445881
17.22083	695.9102	7.442416
17.22916	696.2440	7.438928
17.23750	696.5747	7.435444
17.24583	696.9056	7.431981
17.25417	697.2407	7.428494
17.26250	697.5704	7.425006
17.27084	697.9043	7.421526
17.27917	698.2381	7.418045
17.28750	698.5694	7.414548
17.29584	698.9009	7.411061
17.30417	699.2340	7.407563
17.31250	699.5679	7.404048
17.32083	699.8978	7.400538
17.32916	700.2312	7.397019
17.33750	700.5638	7.393488
17.34583	700.8976	7.389957
17.35416	701.2280	7.386436
17.36250	701.5601	7.382930
17.37083	701.8944	7.379418
17.37917	702.2266	7.375839
17.38750	702.5603	7.372257
17.39584	702.8906	7.368706
17.40417	703.2236	7.365150
17.41250	703.5582	7.361569
17.42084	703.8874	7.358004
17.42917	704.2215	7.354450
17.43750	704.5543	7.350888
17.44583	704.8860	7.347280
17.45416	705.2194	7.343672
17.46250	705.5514	7.340139
17.47083	705.8837	7.336606
17.47916	706.2160	7.333009
17.48750	706.5498	7.329391
17.49583	706.8822	7.325825
17.50417	707.2138	7.322262
17.51250	707.5497	7.318647
17.52084	707.8804	7.315005
17.52917	708.2134	7.311380
17.53750	708.5460	7.307722
17.54584	708.8782	7.304038
17.55417	709.2101	7.300363
17.56250	709.5442	7.296695
17.57083	709.8759	7.293022
17.57916	710.2090	7.289334
17.58750	710.5418	7.285587
17.59583	710.8726	7.281858
17.60416	711.2053	7.278134
17.61250	711.5372	7.274380
17.62083	711.8709	7.270606
17.62917	712.2046	7.266806
17.63750	712.5356	7.263016
17.64584	712.8694	7.259220
17.65417	713.2007	7.255456
17.66250	713.5324	7.251688
17.67084	713.8672	7.247924
17.67917	714.1993	7.244156
17.68750	714.5305	7.240400
17.69583	714.8634	7.236665
17.70416	715.1960	7.232918
17.71250	715.5274	7.229168
17.72083	715.8589	7.225390
17.72916	716.1910	7.221643
17.73750	716.5245	7.217890
17.74583	716.8572	7.214108
17.75417	717.1912	7.210321
17.76250	717.5235	7.206497
17.77084	717.8549	7.202668
17.77917	718.1894	7.198816
17.78750	718.5204	7.195008
17.79584	718.8508	7.191254
17.80417	719.1866	7.187535
17.81250	719.5154	7.183847
17.82083	719.8500	7.180134
17.82916	720.1844	7.176425
17.83750	720.5150	7.172747
17.84583	720.8500	7.169124
17.85416	721.1806	7.165531
17.86250	721.5136	7.161994
17.87083	721.8462	7.158465
17.87917	722.1803	7.154939
17.88750	722.5124	7.151389
17.89584	722.8449	7.147832
17.90417	723.1788	7.144343
17.91250	723.5134	7.140880
17.92084	723.8460	7.137444
17.92917	724.1792	7.134015
17.93750	724.5112	7.130564
17.94583	724.8438	7.127116
17.95416	725.1776	7.123720
17.96250	725.5122	7.120318
17.97083	725.8457	7.116942
17.97916	726.1758	7.113550
17.98750	726.5097	7.110134
17.99583	726.8434	7.106740
18.00417	727.1750	7.103338
18.01250	727.5099	7.099955
18.02084	727.8425	7.096631
18.02917	728.1746	7.093312
18.03750	728.5100	7.089961
18.04584	728.8426	7.086643
18.05417	729.1738	7.083372
18.06250	729.5082	7.080116
18.07083	729.8398	7.076910
18.07916	730.1761	7.073690
18.08750	730.5070	7.070490
18.09583	730.8410	7.067280
18.10416	731.1715	7.064040
18.11250	731.5049	7.060819
18.12083	731.8379	7.057611
18.12917	732.1712	7.054394
18.13750	732.5030	7.051168
18.14584	732.8370	7.047949
18.15417	733.1710	7.044714
18.16250	733.5032	7.041505
18.17084	733.8350	7.038318
18.17917	734.1688	7.035171
18.18750	734.5011	7.032018
18.19583	734.8353	7.028840
18.20416	735.1662	7.025690
18.21250	735.4993	7.022556
18.22083	735.8334	7.019388
18.22916	736.1663	7.016235
18.23750	736.4997	7.013110
18.24583	736.8322	7.009990
18.25417	737.1665	7.006872
18.26250	737.4975	7.003718
18.27084	737.8329	7.000572
18.27917	738.1656	6.997459
18.28750	738.4982	6.994319
18.29584	738.8332	6.991145
18.30417	739.1652	6.988030
18.31250	739.4969	6.984951
18.32083	739.8298	6.981850
18.32916	740.1635	6.978739
18.33750	740.4981	6.975642
18.34583	740.8285	6.972562
18.35416	741.1637	6.969514
18.36250	741.4982	6.966482
18.37083	741.8296	6.963437
18.37917	742.1640	6.960438
18.38750	742.4950	6.957453
18.39584	742.8296	6.954425
18.40417	743.1606	6.951402
18.41250	743.4934	6.948395
18.42084	743.8290	6.945389
18.42917	744.1599	6.942408
18.43750	744.4920	6.939412
18.44583	744.8270	6.936390
18.45416	745.1584	6.933420
18.46250	745.4918	6.930426
18.47083	745.8239	6.927408
18.47916	746.1566	6.924426
18.48750	746.4901	6.921444
18.49583	746.8234	6.918507
18.50417	747.1562	6.915578
18.51250	747.4894	6.912622
18.52084	747.8218	6.909672
18.52917	748.1540	6.906757
18.53750	748.4848	6.903839
18.54584	748.8210	6.900921
18.55417	749.1536	6.897999
18.56250	749.4848	6.895080
18.57083	749.8174	6.892187
18.57916	750.1516	6.889251
18.58750	750.4824	6.886330
18.59583	750.8139	6.883447
18.60416	751.1484	6.880561
18.61250	751.4804	6.877666
18.62083	751.8139	6.874751
18.62917	752.1476	6.871814
18.63750	752.4766	6.868930
18.64584	752.8118	6.866060
18.65417	753.1432	6.863152
18.66250	753.4766	6.860272
18.67084	753.8108	6.857400
18.67917	754.1415	6.854526
18.68750	754.4758	6.851669
18.69583	754.8106	6.848853
18.70416	755.1418	6.846072
18.71250	755.4734	6.843321
18.72083	755.8068	6.840530
18.72916	756.1397	6.837758
18.73750	756.4716	6.835041
18.74583	756.8058	6.832250
18.75417	757.1379	6.829465
18.76250	757.4706	6.826712
18.77084	757.8015	6.823968
18.77917	758.1349	6.821194
18.78750	758.4668	6.818439
18.79584	758.8000	6.815706
18.80417	759.1322	6.813000
18.81250	759.4650	6.810282
18.82083	759.7980	6.807553
18.82916	760.1332	6.804870
18.83750	760.4644	6.802168
18.84583	760.7966	6.799439
18.85416	761.1292	6.796730
18.86250	761.4620	6.794013
18.87083	761.7954	6.791265
18.87917	762.1274	6.788544
18.88750	762.4624	6.785839
18.89584	762.7921	6.783163
18.90417	763.1257	6.780488
18.91250	763.4594	6.777805
18.92084	763.7897	6.775134
18.92917	764.1232	6.772503
18.93750	764.4569	6.769860
18.94583	764.7912	6.767199
18.95416	765.1239	6.764570
18.96250	765.4570	6.761941
18.97083	765.7891	6.759272
18.97916	766.1201	6.756568
18.98750	766.4544	6.753901
18.99583	766.7881	6.751301
19.00417	767.1194	6.748726
19.01250	767.4526	6.746141
19.02084	767.7850	6.743556
19.02917	768.1204	6.741022
19.03750	768.4516	6.738479
19.04584	768.7850	6.735925
19.05417	769.1181	6.733424
19.06250	769.4506	6.730934
19.07083	769.7842	6.728424
19.07916	770.1141	6.725912
19.08750	770.4476	6.723407
19.09583	770.7792	6.720890
19.10416	771.1143	6.718374
19.11250	771.4465	6.715860
19.12083	771.7810	6.713376
19.12917	772.1132	6.710919
19.13750	772.4441	6.708430
19.14584	772.7795	6.705910
19.15417	773.1109	6.703409
19.16250	773.4436	6.700903
19.17084	773.7788	6.698398
19.17917	774.1094	6.695912
19.18750	774.4428	6.693449
19.19583	774.7765	6.690988
19.20416	775.1078	6.688528
19.21250	775.4420	6.686084
19.22083	775.7762	6.683668
19.22916	776.1068	6.681294
19.23750	776.4402	6.678916
19.24583	776.7750	6.676556
19.25417	777.1051	6.674200
19.26250	777.4391	6.671855
19.27084	777.7714	6.669514
19.27917	778.1030	6.667151
19.28750	778.4366	6.664798
19.29584	778.7681	6.662391
19.30417	779.1034	6.659976
19.31250	779.4369	6.657613
19.32083	779.7688	6.655259
19.32916	780.1016	6.652898
19.33750	780.4349	6.650526
19.34583	780.7668	6.648151
19.35416	781.1016	6.645784
19.36250	781.4339	6.643442
19.37083	781.7638	6.641112
19.37917	782.1000	6.638834
19.38750	782.4325	6.636578
19.39584	782.7656	6.634293
19.40417	783.0958	6.632065
19.41250	783.4306	6.629820
19.42084	783.7650	6.627560
19.42917	784.0956	6.625344
19.43750	784.4284	6.623168
19.44583	784.7628	6.620996
19.45416	785.0956	6.618814
19.46250	785.4284	6.616622
19.47083	785.7603	6.614426
19.47916	786.0944	6.612237
19.48750	786.4280	6.610032
19.49583	786.7616	6.607864
19.50417	787.0914	6.605731
19.51250	787.4256	6.603557
19.52084	787.7595	6.601360
19.52917	788.0926	6.599189
19.53750	788.4239	6.596994
19.54584	788.7550	6.594800
19.55417	789.0899	6.592650
19.56250	789.4247	6.590478
19.57083	789.7560	6.588288
19.57916	790.0868	6.586109
19.58750	790.4230	6.583960
19.59583	790.7561	6.581832
19.60416	791.0890	6.579735
19.61250	791.4203	6.577658
19.62083	791.7545	6.575585
19.62917	792.0876	6.573561
19.63750	792.4212	6.571524
19.64584	792.7550	6.569500
19.65417	793.0874	6.567485
19.66250	793.4214	6.565478
19.67084	793.7522	6.563468
19.67917	794.0868	6.561438
19.68750	794.4203	6.559379
19.69583	794.7531	6.557312
19.70416	795.0858	6.555290
19.71250	795.4210	6.553234
19.72083	795.7548	6.551228
19.72916	796.0856	6.549228
19.73750	796.4186	6.547252
19.74583	796.7522	6.545234
19.75417	797.0879	6.543228
19.76250	797.4202	6.541260
19.77084	797.7526	6.539301
19.77917	798.0875	6.537342
19.78750	798.4194	6.535400
19.79584	798.7530	6.533500
19.80417	799.0866	6.531558
19.81250	799.4192	6.529626
19.82083	799.7532	6.527674
19.82916	800.0859	6.525799
19.83750	800.4218	6.523938
19.84583	800.7558	6.522080
19.85416	801.0884	6.520238
19.86250	801.4229	6.518380
19.87083	801.7550	6.516504
19.87917	802.0876	6.514643
19.88750	802.4225	6.512774
19.89584	802.7564	6.510918
19.90417	803.0890	6.509100
19.91250	803.4247	6.507271
19.92084	803.7550	6.505412
19.92917	804.0916	6.503523
19.93750	804.4222	6.501640
19.94583	804.7581	6.499820
19.95416	805.0912	6.498026
19.96250	805.4262	6.496200
19.97083	805.7603	6.494406
19.97916	806.0924	6.492640
19.98750	806.4269	6.490869
19.99583	806.7616	6.489111
20.00417	807.0946	6.487368
20.01250	807.4264	6.485637
20.02084	807.7609	6.483914
20.02917	808.0956	6.482183
20.03750	808.4282	6.480504
20.04584	808.7632	6.478849
20.05417	809.0952	6.477199
20.06250	809.4295	6.475516
20.07083	809.7621	6.473816
20.07916	810.0976	6.472131
20.08750	810.4312	6.470470
20.09583	810.7630	6.468836
20.10416	811.0984	6.467210
20.11250	811.4316	6.465581
20.12083	811.7648	6.463933
20.12917	812.1011	6.462283
20.13750	812.4331	6.460640
20.14584	812.7671	6.459037
20.15417	813.1012	6.457432
20.16250	813.4314	6.455795
20.17084	813.7684	6.454153
20.17917	814.1003	6.452532
20.18750	814.4330	6.450945
20.19583	814.7668	6.449356
20.20416	815.1008	6.447778
20.21250	815.4344	6.446206
20.22083	815.7687	6.444654
20.22916	816.1019	6.443097
20.23750	816.4360	6.441584
20.24583	816.7702	6.440104
20.25417	817.1034	6.438642
20.26250	817.4374	6.437185
20.27084	817.7710	6.435699
20.27917	818.1030	6.434220
20.28750	818.4369	6.432752
20.29584	818.7702	6.431276
20.30417	819.1046	6.429763
20.31250	819.4392	6.428260
20.32083	819.7705	6.426762
20.32916	820.1049	6.425250
20.33750	820.4392	6.423760
20.34583	820.7712	6.422265
20.35416	821.1064	6.420770
20.36250	821.4395	6.419312
20.37083	821.7711	6.417878
20.37917	822.1086	6.416436
20.38750	822.4371	6.415000
20.39584	822.7747	6.413612
20.40417	823.1078	6.412224
20.41250	823.4410	6.410849
20.42084	823.7743	6.409441
20.42917	824.1088	6.408057
20.43750	824.4406	6.406714
20.44583	824.7742	6.405344
20.45416	825.1070	6.403955
20.46250	825.4406	6.402615
20.47083	825.7762	6.401324
20.47916	826.1082	6.400022
20.48750	826.4406	6.398726
20.49583	826.7761	6.397446
20.50417	827.1089	6.396192
20.51250	827.4419	6.394926
20.52084	827.7762	6.393652
20.52917	828.1063	6.392405
20.53750	828.4422	6.391171
20.54584	828.7750	6.389934
20.55417	829.1076	6.388695
20.56250	829.4424	6.387444
20.57083	829.7741	6.386203
20.57916	830.1086	6.384966
20.58750	830.4390	6.383738
20.59583	830.7726	6.382520
20.60416	831.1059	6.381296
20.61250	831.4388	6.380072
20.62083	831.7734	6.378842
20.62917	832.1062	6.377612
20.63750	832.4389	6.376374
20.64584	832.7718	6.375140
20.65417	833.1070	6.373924
20.66250	833.4376	6.372734
20.67084	833.7710	6.371539
20.67917	834.1053	6.370331
20.68750	834.4363	6.369144
20.69583	834.7700	6.367963
20.70416	835.1026	6.366806
20.71250	835.4371	6.365640
20.72083	835.7703	6.364500
20.72916	836.1012	6.363363
20.73750	836.4360	6.362214
20.74583	836.7684	6.361048
20.75417	837.1015	6.359914
20.76250	837.4348	6.358832
20.77084	837.7684	6.357758
20.77917	838.0985	6.356672
20.78750	838.4349	6.355574
20.79584	838.7653	6.354516
20.80417	839.0999	6.353446
20.81250	839.4319	6.352376
20.82083	839.7644	6.351300
20.82916	840.0974	6.350212
20.83750	840.4306	6.349094
20.84583	840.7626	6.347971
20.85416	841.0949	6.346853
20.86250	841.4276	6.345764
20.87083	841.7608	6.344693
20.87917	842.0946	6.343598
20.88750	842.4289	6.342502
20.89584	842.7611	6.341400
20.90417	843.0934	6.340315
20.91250	843.4259	6.339256
20.92084	843.7602	6.338219
20.92917	844.0919	6.337198
20.93750	844.4255	6.336200
20.94583	844.7586	6.335175
20.95416	845.0912	6.334141
20.96250	845.4251	6.333144
20.97083	845.7586	6.332178
20.97916	846.0892	6.331211
20.98750	846.4228	6.330256
20.99583	846.7558	6.329318
21.00417	847.0871	6.328370
21.01250	847.4241	6.327407
21.02084	847.7548	6.326412
21.02917	848.0868	6.325419
21.03750	848.4195	6.324413
21.04584	848.7512	6.323402
21.05417	849.0859	6.322418
21.06250	849.4174	6.321445
21.07083	849.7519	6.320419
21.07916	850.0830	6.319380
21.08750	850.4168	6.318378
21.09583	850.7488	6.317382
21.10416	851.0818	6.316399
21.11250	851.4128	6.315424
21.12083	851.7466	6.314477
21.12917	852.0782	6.313512
21.13750	852.4126	6.312510
21.14584	852.7412	6.311536
21.15417	853.0784	6.310613
21.16250	853.4090	6.309692
21.17084	853.7430	6.308746
21.17917	854.0749	6.307789
21.18750	854.4049	6.306828
21.19583	854.7391	6.305881
21.20416	855.0719	6.304928
21.21250	855.4066	6.304005
21.22083	855.7362	6.303066
21.22916	856.0696	6.302114
21.23750	856.4018	6.301188
21.24583	856.7347	6.300224
21.25417	857.0678	6.299262
21.26250	857.4012	6.298338
21.27084	857.7329	6.297440
21.27917	858.0649	6.296526
21.28750	858.3981	6.295581
21.29584	858.7299	6.294613
21.30417	859.0618	6.293694
21.31250	859.3959	6.292744
21.32083	859.7269	6.291750
21.32916	860.0613	6.290801
21.33750	860.3926	6.289895
21.34583	860.7255	6.288974
21.35416	861.0568	6.288020
21.36250	861.3887	6.287099
21.37083	861.7219	6.286216
21.37917	862.0522	6.285336
21.38750	862.3875	6.284422
21.39584	862.7157	6.283495
21.40417	863.0499	6.282562
21.41250	863.3803	6.281643
21.42084	863.7140	6.280700
21.42917	864.0451	6.279754
21.43750	864.3799	6.278839
21.44583	864.7094	6.277921
21.45416	865.0428	6.277005
21.46250	865.3754	6.276099
21.47083	865.7064	6.275198
21.47916	866.0399	6.274361
21.48750	866.3722	6.273535
21.49583	866.7038	6.272672
21.50417	867.0341	6.271820
21.51250	867.3672	6.270956
21.52084	867.6981	6.270046
21.52917	868.0306	6.269154
21.53750	868.3619	6.268303
21.54584	868.6938	6.267434
21.55417	869.0266	6.266566
21.56250	869.3602	6.265660
21.57083	869.6918	6.264761
21.57916	870.0216	6.263864
21.58750	870.3549	6.262967
21.59583	870.6868	6.262078
21.60416	871.0184	6.261216
21.61250	871.3505	6.260328
21.62083	871.6816	6.259376
21.62917	872.0152	6.258446
21.63750	872.3450	6.257527
21.64584	872.6789	6.256612
21.65417	873.0111	6.255761
21.66250	873.3429	6.254928
21.67084	873.6755	6.254034
21.67917	874.0069	6.253171
21.68750	874.3382	6.252316
21.69583	874.6709	6.251437
21.70416	875.0019	6.250570
21.71250	875.3368	6.249740
21.72083	875.6664	6.248903
21.72916	875.9981	6.248040
21.73750	876.3321	6.247134
21.74583	876.6652	6.246266
21.75417	876.9947	6.245440
21.76250	877.3301	6.244560
21.77084	877.6616	6.243694
21.77917	877.9941	6.242856
21.78750	878.3243	6.242028
21.79584	878.6566	6.241152
21.80417	878.9878	6.240283
21.81250	879.3216	6.239454
21.82083	879.6516	6.238618
21.82916	879.9858	6.237719
21.83750	880.3168	6.236825
21.84583	880.6509	6.235982
21.85416	880.9809	6.235130
21.86250	881.3144	6.234272
21.87083	881.6441	6.233426
21.87917	881.9788	6.232569
21.88750	882.3079	6.231711
21.89584	882.6394	6.230870
21.90417	882.9741	6.230060
21.91250	883.3072	6.229258
21.92084	883.6375	6.228453
21.92917	883.9702	6.227632
21.93750	884.3015	6.226812
21.94583	884.6351	6.226006
21.95416	884.9655	6.225204
21.96250	885.2988	6.224407
21.97083	885.6316	6.223618
21.97916	885.9618	6.222812
21.98750	886.2941	6.221974
21.99583	886.6272	6.221174
22.00417	886.9601	6.220380
22.01250	887.2922	6.219568
22.02084	887.6246	6.218732
22.02917	887.9539	6.217864
22.03750	888.2878	6.217018
22.04584	888.6200	6.216184
22.05417	888.9512	6.215358
22.06250	889.2832	6.214541
22.07083	889.6156	6.213752
22.07916	889.9476	6.212961
22.08750	890.2784	6.212178
22.09583	890.6100	6.211412
22.10416	890.9412	6.210675
22.11250	891.2749	6.209976
22.12083	891.6062	6.209250
22.12917	891.9394	6.208462
22.13750	892.2694	6.207640
22.14584	892.5996	6.206861
22.15417	892.9320	6.206074
22.16250	893.2657	6.205274
22.17084	893.5968	6.204474
22.17917	893.9295	6.203676
22.18750	894.2616	6.202902
22.19583	894.5928	6.202142
22.20416	894.9250	6.201396
22.21250	895.2595	6.200690
22.22083	895.5903	6.200018
22.22916	895.9222	6.199312
22.23750	896.2522	6.198574
22.24583	896.5858	6.197881
22.25417	896.9188	6.197210
22.26250	897.2503	6.196502
22.27084	897.5842	6.195785
22.27917	897.9153	6.195066
22.28750	898.2461	6.194356
22.29584	898.5750	6.193672
22.30417	898.9076	6.192986
22.31250	899.2394	6.192286
22.32083	899.5728	6.191632
22.32916	899.9074	6.190940
22.33750	900.2414	6.190237
22.34583	900.5728	6.189528
22.35416	900.9062	6.188789
22.36250	901.2348	6.188086
22.37083	901.5656	6.187369
22.37917	901.8972	6.186634
22.38750	902.2319	6.185926
22.39584	902.5663	6.185234
22.40417	902.8970	6.184539
22.41250	903.2288	6.183826
22.42084	903.5630	6.183115
22.42917	903.8939	6.182462
22.43750	904.2249	6.181845
22.44583	904.5598	6.181188
22.45416	904.8924	6.180523
22.46250	905.2243	6.179902
22.47083	905.5564	6.179286
22.47916	905.8888	6.178644
22.48750	906.2218	6.177979
22.49583	906.5541	6.177349
22.50417	906.8855	6.176708
22.51250	907.2186	6.176055
22.52084	907.5519	6.175430
22.52917	907.8838	6.174795
22.53750	908.2153	6.174152
22.54584	908.5497	6.173484
22.55417	908.8820	6.172782
22.56250	909.2144	6.172094
22.57083	909.5449	6.171450
22.57916	909.8785	6.170788
22.58750	910.2116	6.170154
22.59583	910.5446	6.169526
22.60416	910.8788	6.168842
22.61250	911.2118	6.168182
22.62083	911.5420	6.167557
22.62917	911.8749	6.166912
22.63750	912.2070	6.166254
22.64584	912.5395	6.165629
22.65417	912.8724	6.165000
22.66250	913.2022	6.164432
22.67084	913.5371	6.163800
22.67917	913.8699	6.163145
22.68750	914.2024	6.162520
22.69583	914.5356	6.161903
22.70416	914.8686	6.161262
22.71250	915.2007	6.160672
22.72083	915.5329	6.160105
22.72916	915.8672	6.159504
22.73750	916.1972	6.158886
22.74583	916.5305	6.158213
22.75417	916.8634	6.157588
22.76250	917.1965	6.156993
22.77084	917.5276	6.156400
22.77917	917.8631	6.155782
22.78750	918.1938	6.155161
22.79584	918.5258	6.154518
22.80417	918.8591	6.153880
22.81250	919.1920	6.153254
22.82083	919.5256	6.152656
22.82916	919.8570	6.152079
22.83750	920.1870	6.151492
22.84583	920.5212	6.150890
22.85416	920.8554	6.150261
22.86250	921.1868	6.149630
22.87083	921.5174	6.149028
22.87917	921.8515	6.148438
22.88750	922.1836	6.147864
22.89584	922.5157	6.147278
22.90417	922.8495	6.146634
22.91250	923.1822	6.145972
22.92084	923.5163	6.145352
22.92917	923.8470	6.144762
22.93750	924.1782	6.144170
22.94583	924.5122	6.143593
22.95416	924.8457	6.143015
22.96250	925.1781	6.142428
22.97083	925.5085	6.141820
22.97916	925.8411	6.141223
22.98750	926.1751	6.140654
22.99583	926.5056	6.140099
23.00417	926.8410	6.139518
23.01250	927.1728	6.138908
23.02084	927.5018	6.138330
23.02917	927.8366	6.137766
23.03750	928.1681	6.137204
23.04584	928.5009	6.136620
23.05417	928.8345	6.136024
23.06250	929.1660	6.135453
23.07083	929.4991	6.134907
23.07916	929.8314	6.134328
23.08750	930.1636	6.133755
23.09583	930.4964	6.133180
23.10416	930.8301	6.132592
23.11250	931.1626	6.132008
23.12083	931.4969	6.131428
23.12917	931.8276	6.130874
23.13750	932.1619	6.130328
23.14584	932.4918	6.129754
23.15417	932.8249	6.129160
23.16250	933.1594	6.128585
23.17084	933.4911	6.128033
23.17917	933.8236	6.127490
23.18750	934.1561	6.126954
23.19583	934.4874	6.126394
23.20416	934.8208	6.125803
23.21250	935.1530	6.125198
23.22083	935.4858	6.124663
23.22916	935.8164	6.124150
23.23750	936.1491	6.123609
23.24583	936.4837	6.123072
23.25417	936.8126	6.122486
23.26250	937.1461	6.121918
23.27084	937.4799	6.121362
23.27917	937.8093	6.120801
23.28750	938.1426	6.120258
23.29584	938.4758	6.119703
23.30417	938.8066	6.119094
23.31250	939.1397	6.118504
23.32083	939.4734	6.117937
23.32916	939.8042	6.117358
23.33750	940.1386	6.116794
23.34583	940.4694	6.116230
23.35416	940.8007	6.115671
23.36250	941.1324	6.115148
23.37083	941.4670	6.114632
23.37917	941.7994	6.114148
23.38750	942.1308	6.113668
23.39584	942.4628	6.113144
23.40417	942.7968	6.112621
23.41250	943.1284	6.112098
23.42084	943.4608	6.111609
23.42917	943.7944	6.111127
23.43750	944.1241	6.110581
23.44583	944.4579	6.109988
23.45416	944.7897	6.109420
23.46250	945.1218	6.108840
23.47083	945.4532	6.108262
23.47916	945.7875	6.107698
23.48750	946.1211	6.107169
23.49583	946.4511	6.106699
23.50417	946.7855	6.106170
23.51250	947.1129	6.105590
23.52084	947.4476	6.105059
23.52917	947.7799	6.104565
23.53750	948.1149	6.104049
23.54584	948.4445	6.103559
23.55417	948.7772	6.103067
23.56250	949.1113	6.102566
23.57083	949.4414	6.102028
23.57916	949.7758	6.101440
23.58750	950.1054	6.100880
23.59583	950.4398	6.100359
23.60416	950.7732	6.099834
23.61250	951.1045	6.099316
23.62083	951.4351	6.098794
23.62917	951.7680	6.098224
23.63750	952.1000	6.097666
23.64584	952.4316	6.097095
23.65417	952.7659	6.096526
23.66250	953.0982	6.096020
23.67084	953.4272	6.095536
23.67917	953.7613	6.094989
23.68750	954.0949	6.094424
23.69583	954.4264	6.093859
23.70416	954.7578	6.093306
23.71250	955.0926	6.092801
23.72083	955.4212	6.092289
23.72916	955.7547	6.091785
23.73750	956.0880	6.091250
23.74583	956.4197	6.090666
23.75417	956.7526	6.090086
23.76250	957.0839	6.089570
23.77084	957.4172	6.089058
23.77917	957.7485	6.088520
23.78750	958.0834	6.087951
23.79584	958.4129	6.087372
23.80417	958.7466	6.086789
23.81250	959.0774	6.086223
23.82083	959.4114	6.085711
23.82916	959.7453	6.085200
23.83750	960.0753	6.084650
23.84583	960.4088	6.084124
23.85416	960.7410	6.083600
23.86250	961.0722	6.083082
23.87083	961.4059	6.082566
23.87917	961.7382	6.082047
23.88750	962.0714	6.081521
23.89584	962.4031	6.081008
23.90417	962.7363	6.080492
23.91250	963.0659	6.079967
23.92084	963.3995	6.079459
23.92917	963.7338	6.078921
23.93750	964.0647	6.078372
23.94583	964.3978	6.077813
23.95416	964.7289	6.077241
23.96250	965.0621	6.076688
23.97083	965.3941	6.076153
23.97916	965.7266	6.075597
23.98750	966.0618	6.075063
23.99583	966.3909	6.074558
24.00417	966.7264	6.073987
24.01250	967.0576	6.073422
24.02084	967.3906	6.072894
24.02917	967.7230	6.072356
24.03750	968.0578	6.071860
24.04584	968.3875	6.071362
24.05417	968.7211	6.070856
24.06250	969.0526	6.070332
24.07083	969.3888	6.069788
24.07916	969.7207	6.069218
24.08750	970.0553	6.068715
24.09583	970.3862	6.068188
24.10416	970.7182	6.067600
24.11250	971.0500	6.067041
24.12083	971.3856	6.066450
24.12917	971.7176	6.065838
24.13750	972.0524	6.065254
24.14584	972.3805	6.064718
24.15417	972.7158	6.064164
24.16250	973.0462	6.063576
24.17084	973.3801	6.062994
24.17917	973.7129	6.062472
24.18750	974.0449	6.062020
24.19583	974.3780	6.061524
24.20416	974.7132	6.061016
24.21250	975.0447	6.060516
24.22083	975.3782	6.059990
24.22916	975.7113	6.059432
24.23750	976.0439	6.058838
24.24583	976.3774	6.058272
24.25417	976.7101	6.057750
24.26250	977.0418	6.057160
24.27084	977.3756	6.056520
24.27917	977.7051	6.055916
24.28750	978.0369	6.055356
24.29584	978.3699	6.054820
24.30417	978.7039	6.054288
24.31250	979.0329	6.053760
24.32083	979.3644	6.053284
24.32916	979.6970	6.052801
24.33750	980.0321	6.052246
24.34583	980.3640	6.051730
24.35416	980.6946	6.051255
24.36250	981.0289	6.050754
24.37083	981.3625	6.050216
24.37917	981.6951	6.049660
