"Time (min)"	"Temperature (°C)"	"Weight (mg)"
.001111111	25.04861	20.45473
.004166667	25.07342	20.45487
0.01250000	25.09773	20.45500
0.02083334	25.12022	20.45510
0.02916666	25.15022	20.45518
0.03750000	25.17722	20.45519
0.04583334	25.20274	20.45522
0.05416668	25.22708	20.45529
0.06250000	25.25383	20.45531
0.07083332	25.27853	20.45531
0.07916666	25.30226	20.45526
0.08750000	25.32992	20.45518
0.09583332	25.35862	20.45513
0.1041666	25.38716	20.45512
0.1125000	25.41789	20.45506
0.1208333	25.44531	20.45502
0.1291666	25.47917	20.45496
0.1375000	25.50914	20.45488
0.1458333	25.54835	20.45484
0.1541667	25.58679	20.45477
0.1625000	25.62410	20.45471
0.1708334	25.65866	20.45467
0.1791666	25.69726	20.45456
0.1875000	25.74066	20.45441
0.1958334	25.78874	20.45433
0.2041667	25.83298	20.45425
0.2125000	25.87938	20.45415
0.2208333	25.93418	20.45399
0.2291667	25.98860	20.45385
0.2375000	26.04210	20.45373
0.2458334	26.09647	20.45360
0.2541666	26.16222	20.45348
0.2625000	26.22410	20.45340
0.2708334	26.29100	20.45331
0.2791667	26.35780	20.45314
0.2875000	26.42722	20.45301
0.2958333	26.50082	20.45289
0.3041667	26.57720	20.45281
0.3125000	26.66026	20.45269
0.3208333	26.73834	20.45254
0.3291667	26.82799	20.45242
0.3375000	26.91417	20.45229
0.3458333	27.01035	20.45213
0.3541666	27.10088	20.45202
0.3625000	27.20040	20.45194
0.3708334	27.30639	20.45177
0.3791666	27.40211	20.45160
0.3875000	27.51334	20.45144
0.3958334	27.62554	20.45128
0.4041666	27.73728	20.45116
0.4125000	27.85593	20.45106
0.4208333	27.97840	20.45088
0.4291667	28.10024	20.45070
0.4375000	28.23018	20.45051
0.4458333	28.36586	20.45030
0.4541667	28.49841	20.45019
0.4625000	28.63719	20.45004
0.4708334	28.78308	20.44986
0.4791666	28.92930	20.44967
0.4875000	29.07702	20.44945
0.4958334	29.23296	20.44923
0.5041666	29.38719	20.44906
0.5125000	29.54419	20.44891
0.5208332	29.71224	20.44878
0.5291666	29.88250	20.44862
0.5375000	30.05468	20.44841
0.5458334	30.22830	20.44823
0.5541668	30.40702	20.44808
0.5625000	30.58940	20.44788
0.5708332	30.77805	20.44772
0.5791666	30.96938	20.44759
0.5875000	31.17010	20.44742
0.5958334	31.37024	20.44722
0.6041668	31.56924	20.44702
0.6125000	31.78066	20.44683
0.6208334	31.99406	20.44666
0.6291666	32.20925	20.44647
0.6375000	32.42488	20.44631
0.6458332	32.64881	20.44618
0.6541666	32.87162	20.44603
0.6625000	33.10778	20.44585
0.6708334	33.34192	20.44570
0.6791668	33.57860	20.44554
0.6875000	33.81742	20.44536
0.6958332	34.07028	20.44521
0.7041666	34.31546	20.44506
0.7125000	34.56965	20.44492
0.7208334	34.82866	20.44475
0.7291668	35.08708	20.44455
0.7375000	35.35428	20.44433
0.7458334	35.62832	20.44412
0.7541666	35.89669	20.44393
0.7625000	36.17197	20.44377
0.7708332	36.45420	20.44359
0.7791666	36.74219	20.44338
0.7875000	37.02966	20.44316
0.7958334	37.32022	20.44293
0.8041668	37.61568	20.44274
0.8125000	37.91568	20.44256
0.8208332	38.22006	20.44239
0.8291666	38.52438	20.44222
0.8375000	38.82937	20.44206
0.8458334	39.14108	20.44191
0.8541668	39.46002	20.44174
0.8625000	39.78150	20.44158
0.8708332	40.10495	20.44138
0.8791668	40.43426	20.44117
0.8875000	40.76053	20.44099
0.8958332	41.09247	20.44081
0.9041666	41.43144	20.44062
0.9125000	41.76954	20.44043
0.9208334	42.11160	20.44020
0.9291668	42.45982	20.43996
0.9375000	42.80959	20.43974
0.9458332	43.16508	20.43954
0.9541666	43.51900	20.43938
0.9625000	43.87668	20.43925
0.9708334	44.23889	20.43906
0.9791668	44.60231	20.43889
0.9875000	44.97026	20.43871
0.9958332	45.33580	20.43849
1.004167	45.71324	20.43828
1.012500	46.08619	20.43805
1.020833	46.46582	20.43784
1.029167	46.85094	20.43760
1.037500	47.23570	20.43732
1.045834	47.61896	20.43705
1.054167	48.00522	20.43678
1.062500	48.39800	20.43652
1.070833	48.79529	20.43625
1.079166	49.18914	20.43601
1.087500	49.59079	20.43574
1.095833	49.99244	20.43548
1.104166	50.39596	20.43521
1.112500	50.80548	20.43495
1.120833	51.21221	20.43471
1.129167	51.62438	20.43444
1.137500	52.03582	20.43414
1.145834	52.45165	20.43385
1.154167	52.87030	20.43357
1.162500	53.29043	20.43328
1.170834	53.71224	20.43297
1.179167	54.13974	20.43268
1.187500	54.56158	20.43239
1.195833	54.98819	20.43207
1.204166	55.41906	20.43175
1.212500	55.84870	20.43143
1.220833	56.28266	20.43112
1.229166	56.71575	20.43078
1.237500	57.15456	20.43042
1.245833	57.59010	20.43006
1.254167	58.03010	20.42974
1.262500	58.47326	20.42935
1.270834	58.91519	20.42895
1.279167	59.35684	20.42856
1.287500	59.80895	20.42817
1.295834	60.25276	20.42779
1.304167	60.70074	20.42739
1.312500	61.15144	20.42697
1.320833	61.60100	20.42657
1.329166	62.05551	20.42616
1.337500	62.50949	20.42571
1.345833	62.96580	20.42528
1.354166	63.42310	20.42486
1.362500	63.87989	20.42441
1.370833	64.33784	20.42391
1.379167	64.79550	20.42341
1.387500	65.25616	20.42295
1.395834	65.71894	20.42244
1.404167	66.17942	20.42192
1.412500	66.64282	20.42139
1.420834	67.10489	20.42086
1.429167	67.57418	20.42034
1.437500	68.03649	20.41981
1.445833	68.50556	20.41928
1.454166	68.97271	20.41878
1.462500	69.44097	20.41822
1.470833	69.91126	20.41761
1.479166	70.38145	20.41703
1.487500	70.85290	20.41642
1.495833	71.32476	20.41581
1.504167	71.79378	20.41519
1.512500	72.26638	20.41458
1.520834	72.74039	20.41394
1.529167	73.21139	20.41329
1.537500	73.68858	20.41261
1.545834	74.15996	20.41192
1.554167	74.63555	20.41125
1.562500	75.10803	20.41055
1.570833	75.58478	20.40985
1.579166	76.06040	20.40917
1.587500	76.53156	20.40845
1.595833	77.01348	20.40773
1.604166	77.48479	20.40699
1.612500	77.96295	20.40624
1.620833	78.43666	20.40548
1.629167	78.91058	20.40471
1.637500	79.38876	20.40393
1.645834	79.86665	20.40312
1.654167	80.33956	20.40229
1.662500	80.81519	20.40145
1.670834	81.29366	20.40059
1.679166	81.77358	20.39967
1.687500	82.24678	20.39878
1.695834	82.72306	20.39786
1.704166	83.20106	20.39693
1.712500	83.67440	20.39601
1.720833	84.14813	20.39506
1.729166	84.63042	20.39409
1.737500	85.10400	20.39316
1.745833	85.58316	20.39221
1.754167	86.05382	20.39125
1.762500	86.53716	20.39025
1.770834	87.00803	20.38921
1.779167	87.48278	20.38818
1.787500	87.95781	20.38715
1.795834	88.43511	20.38606
1.804166	88.91011	20.38496
1.812500	89.38540	20.38386
1.820834	89.85632	20.38273
1.829166	90.33295	20.38156
1.837500	90.80574	20.38036
1.845833	91.28076	20.37920
1.854166	91.75380	20.37803
1.862500	92.22358	20.37684
1.870833	92.69699	20.37562
1.879167	93.16918	20.37439
1.887500	93.64051	20.37313
1.895834	94.11011	20.37186
1.904167	94.57892	20.37055
1.912500	95.05043	20.36924
1.920834	95.51825	20.36789
1.929166	95.98672	20.36650
1.937500	96.45651	20.36512
1.945834	96.92496	20.36371
1.954166	97.39528	20.36227
1.962500	97.86299	20.36084
1.970833	98.32850	20.35941
1.979166	98.79342	20.35796
1.987500	99.25916	20.35650
1.995833	99.72369	20.35499
2.004166	100.1918	20.35348
2.012500	100.6539	20.35200
2.020833	101.1193	20.35047
2.029167	101.5820	20.34893
2.037500	102.0441	20.34736
2.045834	102.5030	20.34576
2.054166	102.9647	20.34414
2.062500	103.4266	20.34250
2.070834	103.8886	20.34086
2.079166	104.3460	20.33922
2.087500	104.8048	20.33759
2.095833	105.2620	20.33594
2.104167	105.7195	20.33425
2.112500	106.1754	20.33251
2.120834	106.6361	20.33075
2.129166	107.0902	20.32901
2.137500	107.5461	20.32727
2.145833	108.0003	20.32549
2.154167	108.4556	20.32368
2.162500	108.9061	20.32183
2.170834	109.3585	20.31995
2.179166	109.8118	20.31808
2.187500	110.2632	20.31618
2.195834	110.7144	20.31429
2.204166	111.1628	20.31240
2.212500	111.6142	20.31048
2.220833	112.0608	20.30856
2.229167	112.5079	20.30662
2.237500	112.9577	20.30465
2.245834	113.4038	20.30270
2.254166	113.8490	20.30073
2.262500	114.2938	20.29873
2.270833	114.7392	20.29672
2.279167	115.1824	20.29470
2.287500	115.6262	20.29266
2.295834	116.0710	20.29059
2.304166	116.5080	20.28849
2.312500	116.9501	20.28641
2.320834	117.3928	20.28432
2.329166	117.8360	20.28219
2.337500	118.2744	20.28005
2.345833	118.7149	20.27791
2.354167	119.1564	20.27576
2.362500	119.5908	20.27358
2.370834	120.0315	20.27140
2.379166	120.4701	20.26924
2.387500	120.9033	20.26706
2.395833	121.3376	20.26488
2.404167	121.7714	20.26267
2.412500	122.2074	20.26046
2.420834	122.6393	20.25824
2.429166	123.0714	20.25599
2.437500	123.5052	20.25374
2.445834	123.9375	20.25148
2.454166	124.3653	20.24921
2.462500	124.7965	20.24690
2.470833	125.2258	20.24458
2.479167	125.6549	20.24225
2.487500	126.0841	20.23992
2.495834	126.5142	20.23759
2.504166	126.9414	20.23525
2.512500	127.3704	20.23292
2.520833	127.7937	20.23057
2.529167	128.2178	20.22820
2.537500	128.6425	20.22579
2.545834	129.0653	20.22338
2.554166	129.4887	20.22102
2.562500	129.9112	20.21863
2.570834	130.3370	20.21622
2.579166	130.7615	20.21379
2.587500	131.1786	20.21136
2.595833	131.5992	20.20892
2.604167	132.0205	20.20648
2.612500	132.4420	20.20406
2.620834	132.8632	20.20166
2.629166	133.2839	20.19924
2.637500	133.7036	20.19678
2.645833	134.1230	20.19432
2.654167	134.5398	20.19189
2.662500	134.9585	20.18944
2.670834	135.3796	20.18695
2.679166	135.7952	20.18446
2.687500	136.2110	20.18196
2.695834	136.6262	20.17942
2.704166	137.0437	20.17691
2.712500	137.4552	20.17441
2.720833	137.8723	20.17185
2.729167	138.2881	20.16932
2.737500	138.7031	20.16680
2.745834	139.1151	20.16426
2.754166	139.5278	20.16174
2.762500	139.9434	20.15923
2.770833	140.3552	20.15667
2.779167	140.7702	20.15413
2.787500	141.1792	20.15158
2.795834	141.5936	20.14901
2.804166	142.0059	20.14647
2.812500	142.4218	20.14391
2.820834	142.8285	20.14134
2.829166	143.2418	20.13877
2.837500	143.6507	20.13619
2.845833	144.0604	20.13356
2.854167	144.4709	20.13098
2.862500	144.8812	20.12839
2.870834	145.2875	20.12578
2.879166	145.6961	20.12318
2.887500	146.1052	20.12054
2.895833	146.5146	20.11786
2.904167	146.9231	20.11521
2.912500	147.3330	20.11256
2.920834	147.7392	20.10992
2.929166	148.1455	20.10730
2.937500	148.5530	20.10467
2.945834	148.9579	20.10202
2.954166	149.3645	20.09939
2.962500	149.7701	20.09678
2.970833	150.1772	20.09416
2.979167	150.5860	20.09154
2.987500	150.9901	20.08888
2.995834	151.3963	20.08626
3.004166	151.8008	20.08362
3.012500	152.2077	20.08093
3.020833	152.6091	20.07824
3.029167	153.0162	20.07557
3.037500	153.4194	20.07289
3.045834	153.8260	20.07019
3.054166	154.2317	20.06748
3.062500	154.6328	20.06478
3.070834	155.0381	20.06209
3.079166	155.4427	20.05935
3.087500	155.8471	20.05659
3.095833	156.2503	20.05390
3.104167	156.6521	20.05120
3.112500	157.0536	20.04850
3.120834	157.4560	20.04580
3.129166	157.8613	20.04310
3.137500	158.2661	20.04040
3.145833	158.6666	20.03771
3.154167	159.0690	20.03499
3.162500	159.4700	20.03228
3.170834	159.8749	20.02961
3.179166	160.2754	20.02689
3.187500	160.6806	20.02415
3.195834	161.0811	20.02139
3.204167	161.4840	20.01862
3.212500	161.8855	20.01587
3.220833	162.2899	20.01311
3.229167	162.6902	20.01033
3.237500	163.0922	20.00752
3.245834	163.4921	20.00472
3.254166	163.8948	20.00190
3.262500	164.2934	19.99911
3.270833	164.6991	19.99634
3.279167	165.0988	19.99355
3.287500	165.5038	19.99069
3.295833	165.9027	19.98781
3.304166	166.3044	19.98492
3.312500	166.7074	19.98205
3.320834	167.1089	19.97923
3.329167	167.5090	19.97636
3.337500	167.9122	19.97349
3.345833	168.3130	19.97062
3.354167	168.7142	19.96769
3.362500	169.1168	19.96480
3.370834	169.5186	19.96194
3.379166	169.9226	19.95906
3.387500	170.3224	19.95619
3.395833	170.7268	19.95328
3.404167	171.1273	19.95030
3.412500	171.5310	19.94736
3.420833	171.9363	19.94439
3.429166	172.3368	19.94140
3.437500	172.7351	19.93840
3.445834	173.1381	19.93540
3.454167	173.5425	19.93238
3.462500	173.9456	19.92934
3.470833	174.3442	19.92632
3.479167	174.7511	19.92332
3.487500	175.1525	19.92033
3.495834	175.5562	19.91730
3.504166	175.9609	19.91428
3.512500	176.3635	19.91126
3.520833	176.7638	19.90828
3.529167	177.1665	19.90525
3.537500	177.5723	19.90221
3.545833	177.9756	19.89918
3.554166	178.3794	19.89614
3.562500	178.7824	19.89314
3.570834	179.1816	19.89008
3.579167	179.5862	19.88699
3.587500	179.9911	19.88391
3.595833	180.3939	19.88080
3.604167	180.7992	19.87766
3.612500	181.2014	19.87451
3.620834	181.6070	19.87136
3.629166	182.0110	19.86818
3.637500	182.4152	19.86498
3.645833	182.8182	19.86175
3.654167	183.2221	19.85858
3.662500	183.6250	19.85541
3.670833	184.0326	19.85222
3.679166	184.4373	19.84904
3.687500	184.8422	19.84585
3.695834	185.2464	19.84262
3.704167	185.6508	19.83942
3.712500	186.0563	19.83626
3.720833	186.4621	19.83304
3.729167	186.8674	19.82982
3.737500	187.2722	19.82656
3.745834	187.6787	19.82331
3.754166	188.0855	19.82006
3.762500	188.4901	19.81678
3.770833	188.8962	19.81352
3.779167	189.3056	19.81032
3.787500	189.7108	19.80706
3.795833	190.1169	19.80376
3.804166	190.5231	19.80047
3.812500	190.9320	19.79718
3.820834	191.3389	19.79391
3.829167	191.7484	19.79062
3.837500	192.1558	19.78728
3.845833	192.5617	19.78398
3.854167	192.9713	19.78070
3.862500	193.3808	19.77736
3.870834	193.7872	19.77402
3.879166	194.1950	19.77070
3.887500	194.6064	19.76741
3.895833	195.0147	19.76411
3.904167	195.4231	19.76074
3.912500	195.8292	19.75739
3.920833	196.2408	19.75405
3.929166	196.6512	19.75074
3.937500	197.0609	19.74742
3.945834	197.4683	19.74408
3.954167	197.8789	19.74077
3.962500	198.2892	19.73744
3.970833	198.7001	19.73407
3.979167	199.1116	19.73072
3.987500	199.5203	19.72737
3.995834	199.9333	19.72402
4.004166	200.3434	19.72070
4.012500	200.7549	19.71733
4.020834	201.1676	19.71394
4.029167	201.5796	19.71058
4.037500	201.9900	19.70716
4.045833	202.4016	19.70370
4.054167	202.8168	19.70029
4.062500	203.2285	19.69686
4.070833	203.6427	19.69342
4.079167	204.0522	19.68998
4.087500	204.4664	19.68653
4.095833	204.8812	19.68307
4.104166	205.2952	19.67964
4.112500	205.7090	19.67624
4.120834	206.1233	19.67280
4.129166	206.5342	19.66939
4.137500	206.9512	19.66592
4.145834	207.3625	19.66244
4.154167	207.7774	19.65903
4.162500	208.1925	19.65560
4.170833	208.6075	19.65211
4.179167	209.0222	19.64863
4.187500	209.4355	19.64512
4.195833	209.8520	19.64153
4.204167	210.2656	19.63804
4.212500	210.6844	19.63454
4.220833	211.0984	19.63104
4.229166	211.5178	19.62750
4.237500	211.9299	19.62395
4.245834	212.3491	19.62040
4.254166	212.7640	19.61686
4.262500	213.1797	19.61330
4.270834	213.5969	19.60968
4.279167	214.0150	19.60611
4.287500	214.4323	19.60252
4.295833	214.8488	19.59888
4.304167	215.2650	19.59525
4.312500	215.6833	19.59162
4.320833	216.1017	19.58794
4.329167	216.5176	19.58428
4.337500	216.9378	19.58063
4.345833	217.3542	19.57696
4.354166	217.7738	19.57327
4.362500	218.1922	19.56953
4.370834	218.6109	19.56578
4.379166	219.0280	19.56203
4.387500	219.4492	19.55824
4.395834	219.8683	19.55444
4.404167	220.2890	19.55064
4.412500	220.7076	19.54680
4.420833	221.1314	19.54298
4.429167	221.5501	19.53914
4.437500	221.9670	19.53529
4.445833	222.3867	19.53146
4.454167	222.8106	19.52756
4.462500	223.2308	19.52369
4.470833	223.6502	19.51979
4.479166	224.0726	19.51584
4.487500	224.4930	19.51190
4.495834	224.9138	19.50794
4.504166	225.3348	19.50388
4.512500	225.7568	19.49982
4.520834	226.1792	19.49575
4.529167	226.6006	19.49162
4.537500	227.0213	19.48752
4.545833	227.4430	19.48335
4.554167	227.8668	19.47912
4.562500	228.2898	19.47490
4.570833	228.7125	19.47061
4.579167	229.1336	19.46627
4.587500	229.5544	19.46194
4.595833	229.9816	19.45754
4.604166	230.4028	19.45310
4.612500	230.8256	19.44858
4.620834	231.2482	19.44402
4.629166	231.6720	19.43944
4.637500	232.0940	19.43485
4.645834	232.5177	19.43017
4.654167	232.9466	19.42542
4.662500	233.3694	19.42058
4.670833	233.7932	19.41566
4.679167	234.2156	19.41066
4.687500	234.6412	19.40558
4.695833	235.0656	19.40041
4.704167	235.4908	19.39514
4.712500	235.9162	19.38975
4.720833	236.3394	19.38420
4.729166	236.7669	19.37852
4.737500	237.1897	19.37266
4.745834	237.6197	19.36666
4.754166	238.0413	19.36050
4.762500	238.4692	19.35412
4.770834	238.8942	19.34754
4.779167	239.3211	19.34074
4.787500	239.7474	19.33368
4.795833	240.1734	19.32633
4.804167	240.6013	19.31869
4.812500	241.0266	19.31075
4.820833	241.4549	19.30254
4.829167	241.8788	19.29402
4.837500	242.3082	19.28516
4.845833	242.7375	19.27602
4.854166	243.1650	19.26654
4.862500	243.5922	19.25672
4.870834	244.0182	19.24658
4.879166	244.4470	19.23617
4.887500	244.8742	19.22549
4.895834	245.3038	19.21454
4.904167	245.7306	19.20330
4.912500	246.1600	19.19184
4.920833	246.5866	19.18015
4.929167	247.0127	19.16822
4.937500	247.4408	19.15610
4.945833	247.8686	19.14378
4.954167	248.2984	19.13119
4.962500	248.7248	19.11834
4.970833	249.1533	19.10532
4.979166	249.5810	19.09210
4.987500	250.0115	19.07866
4.995834	250.4399	19.06496
5.004166	250.8701	19.05098
5.012500	251.2989	19.03681
5.020834	251.7253	19.02236
5.029167	252.1547	19.00765
5.037500	252.5840	18.99272
5.045833	253.0108	18.97759
5.054167	253.4400	18.96215
5.062500	253.8677	18.94642
5.070833	254.2990	18.93046
5.079167	254.7266	18.91423
5.087500	255.1566	18.89769
5.095833	255.5875	18.88085
5.104166	256.0166	18.86369
5.112500	256.4464	18.84623
5.120834	256.8725	18.82849
5.129166	257.3041	18.81041
5.137500	257.7324	18.79199
5.145834	258.1622	18.77320
5.154167	258.5930	18.75405
5.162500	259.0238	18.73454
5.170833	259.4550	18.71466
5.179167	259.8862	18.69441
5.187500	260.3165	18.67386
5.195833	260.7441	18.65292
5.204167	261.1776	18.63149
5.212500	261.6080	18.60964
5.220833	262.0369	18.58740
5.229166	262.4723	18.56473
5.237500	262.9023	18.54161
5.245834	263.3341	18.51804
5.254166	263.7682	18.49404
5.262500	264.1976	18.46956
5.270834	264.6301	18.44454
5.279168	265.0617	18.41904
5.287500	265.4940	18.39312
5.295832	265.9281	18.36671
5.304168	266.3604	18.33977
5.312500	266.7928	18.31238
5.320832	267.2284	18.28449
5.329168	267.6595	18.25610
5.337500	268.0956	18.22723
5.345832	268.5318	18.19787
5.354166	268.9634	18.16800
5.362500	269.3987	18.13764
5.370834	269.8334	18.10681
5.379166	270.2672	18.07552
5.387500	270.7026	18.04376
5.395834	271.1389	18.01158
5.404168	271.5752	17.97899
5.412500	272.0132	17.94596
5.420832	272.4496	17.91252
5.429168	272.8852	17.87872
5.437500	273.3205	17.84461
5.445832	273.7584	17.81015
5.454168	274.1969	17.77535
5.462500	274.6334	17.74027
5.470832	275.0734	17.70499
5.479166	275.5096	17.66945
5.487500	275.9466	17.63369
5.495834	276.3858	17.59775
5.504166	276.8210	17.56162
5.512500	277.2607	17.52537
5.520834	277.7010	17.48896
5.529168	278.1383	17.45250
5.537500	278.5796	17.41599
5.545832	279.0146	17.37943
5.554168	279.4563	17.34284
5.562500	279.8938	17.30626
5.570832	280.3332	17.26970
5.579168	280.7730	17.23320
5.587500	281.2109	17.19680
5.595832	281.6504	17.16048
5.604166	282.0904	17.12427
5.612500	282.5284	17.08820
5.620834	282.9678	17.05230
5.629166	283.4059	17.01654
5.637500	283.8448	16.98091
5.645834	284.2860	16.94546
5.654168	284.7221	16.91025
5.662500	285.1604	16.87526
5.670832	285.5994	16.84049
5.679168	286.0380	16.80596
5.687500	286.4772	16.77165
5.695832	286.9160	16.73759
5.704168	287.3558	16.70378
5.712500	287.7943	16.67022
5.720832	288.2332	16.63692
5.729166	288.6666	16.60389
5.737500	289.1047	16.57110
5.745834	289.5412	16.53858
5.754166	289.9778	16.50633
5.762500	290.4129	16.47436
5.770834	290.8508	16.44266
5.779168	291.2878	16.41122
5.787500	291.7211	16.38006
5.795832	292.1552	16.34919
5.804168	292.5914	16.31859
5.812500	293.0278	16.28825
5.820832	293.4615	16.25813
5.829168	293.8968	16.22827
5.837500	294.3282	16.19866
5.845832	294.7640	16.16928
5.854166	295.1979	16.14018
5.862500	295.6309	16.11134
5.870834	296.0618	16.08268
5.879166	296.4970	16.05426
5.887500	296.9282	16.02615
5.895834	297.3581	15.99828
5.904168	297.7908	15.97066
5.912500	298.2229	15.94327
5.920832	298.6533	15.91612
5.929168	299.0850	15.88918
5.937500	299.5152	15.86245
5.945832	299.9445	15.83594
5.954168	300.3732	15.80967
5.962500	300.8008	15.78362
5.970832	301.2337	15.75774
5.979166	301.6634	15.73210
5.987500	302.0889	15.70669
5.995834	302.5188	15.68151
6.004166	302.9442	15.65659
6.012500	303.3725	15.63188
6.020834	303.8000	15.60738
6.029168	304.2270	15.58311
6.037500	304.6538	15.55908
6.045832	305.0806	15.53527
6.054168	305.5039	15.51166
6.062500	305.9307	15.48825
6.070832	306.3562	15.46502
6.079168	306.7836	15.44199
6.087500	307.2054	15.41916
6.095832	307.6291	15.39652
6.104166	308.0560	15.37407
6.112500	308.4804	15.35181
6.120834	308.9037	15.32974
6.129166	309.3259	15.30784
6.137500	309.7487	15.28616
6.145834	310.1732	15.26465
6.154168	310.5951	15.24336
6.162500	311.0188	15.22227
6.170832	311.4429	15.20135
6.179168	311.8650	15.18062
6.187500	312.2845	15.16007
6.195832	312.7081	15.13969
6.204168	313.1284	15.11949
6.212500	313.5509	15.09948
6.220832	313.9714	15.07962
6.229166	314.3890	15.05995
6.237500	314.8115	15.04042
6.245834	315.2336	15.02106
6.254166	315.6530	15.00189
6.262500	316.0730	14.98287
6.270834	316.4878	14.96398
6.279168	316.9082	14.94525
6.287500	317.3318	14.92668
6.295832	317.7488	14.90824
6.304168	318.1686	14.88994
6.312500	318.5876	14.87182
6.320832	319.0065	14.85386
6.329168	319.4263	14.83598
6.337500	319.8429	14.81821
6.345832	320.2610	14.80056
6.354166	320.6797	14.78309
6.362500	321.0972	14.76574
6.370834	321.5125	14.74847
6.379166	321.9315	14.73134
6.387500	322.3525	14.71433
6.395834	322.7695	14.69740
6.404166	323.1869	14.68060
6.412500	323.6032	14.66394
6.420832	324.0243	14.64735
6.429168	324.4375	14.63086
6.437500	324.8534	14.61445
6.445832	325.2700	14.59813
6.454168	325.6866	14.58192
6.462500	326.1055	14.56578
6.470834	326.5214	14.54969
6.479166	326.9369	14.53365
6.487500	327.3537	14.51766
6.495834	327.7694	14.50172
6.504166	328.1865	14.48589
6.512500	328.6035	14.47011
6.520834	329.0184	14.45438
6.529166	329.4336	14.43872
6.537500	329.8500	14.42310
6.545832	330.2666	14.40750
6.554168	330.6829	14.39194
6.562500	331.1000	14.37646
6.570832	331.5149	14.36099
6.579168	331.9314	14.34552
6.587500	332.3458	14.33005
6.595834	332.7622	14.31461
6.604166	333.1766	14.29919
6.612500	333.5943	14.28376
6.620834	334.0080	14.26836
6.629166	334.4254	14.25301
6.637500	334.8411	14.23764
6.645834	335.2562	14.22225
6.654166	335.6734	14.20686
6.662500	336.0860	14.19146
6.670832	336.5035	14.17602
6.679168	336.9188	14.16058
6.687500	337.3360	14.14514
6.695832	337.7515	14.12965
6.704168	338.1669	14.11411
6.712500	338.5846	14.09852
6.720834	339.0010	14.08288
6.729166	339.4150	14.06719
6.737500	339.8292	14.05143
6.745834	340.2430	14.03564
6.754166	340.6624	14.01986
6.762500	341.0777	14.00401
6.770834	341.4958	13.98807
6.779166	341.9100	13.97208
6.787500	342.3256	13.95602
6.795832	342.7412	13.93984
6.804168	343.1586	13.92359
6.812500	343.5760	13.90733
6.820832	343.9924	13.89105
6.829168	344.4082	13.87460
6.837500	344.8240	13.85803
6.845834	345.2419	13.84136
6.854166	345.6546	13.82458
6.862500	346.0715	13.80770
6.870834	346.4900	13.79071
6.879166	346.9094	13.77364
6.887500	347.3223	13.75646
6.895834	347.7410	13.73910
6.904166	348.1578	13.72156
6.912500	348.5742	13.70394
6.920832	348.9932	13.68618
6.929168	349.4053	13.66823
6.937500	349.8252	13.65015
6.945832	350.2418	13.63192
6.954168	350.6618	13.61355
6.962500	351.0763	13.59502
6.970834	351.4946	13.57631
6.979166	351.9109	13.55745
6.987500	352.3280	13.53844
6.995834	352.7476	13.51920
7.004166	353.1652	13.49978
7.012500	353.5840	13.48018
7.020834	354.0033	13.46040
7.029166	354.4178	13.44039
7.037500	354.8377	13.42016
7.045832	355.2581	13.39971
7.054168	355.6740	13.37906
7.062500	356.0928	13.35817
7.070832	356.5130	13.33705
7.079168	356.9324	13.31577
7.087500	357.3480	13.29426
7.095834	357.7653	13.27253
7.104166	358.1891	13.25056
7.112500	358.6062	13.22837
7.120834	359.0239	13.20597
7.129166	359.4449	13.18332
7.137500	359.8619	13.16049
7.145834	360.2834	13.13743
7.154166	360.7043	13.11412
7.162500	361.1222	13.09057
7.170832	361.5437	13.06680
7.179168	361.9624	13.04281
7.187500	362.3830	13.01859
7.195832	362.8060	12.99411
7.204168	363.2240	12.96944
7.212500	363.6426	12.94463
7.220834	364.0650	12.91951
7.229166	364.4852	12.89418
7.237500	364.9076	12.86867
7.245834	365.3248	12.84297
7.254166	365.7466	12.81711
7.262500	366.1662	12.79106
7.270834	366.5864	12.76484
7.279166	367.0096	12.73852
7.287500	367.4303	12.71204
7.295832	367.8503	12.68538
7.304168	368.2731	12.65864
7.312500	368.6920	12.63181
7.320832	369.1162	12.60490
7.329168	369.5348	12.57794
7.337500	369.9570	12.55088
7.345834	370.3801	12.52378
7.354166	370.8008	12.49668
7.362500	371.2234	12.46958
7.370834	371.6452	12.44246
7.379166	372.0661	12.41538
7.387500	372.4861	12.38836
7.395834	372.9058	12.36140
7.404166	373.3317	12.33452
7.412500	373.7515	12.30769
7.420832	374.1741	12.28100
7.429168	374.5936	12.25446
7.437500	375.0162	12.22806
7.445832	375.4375	12.20181
7.454168	375.8602	12.17577
7.462500	376.2848	12.14992
7.470834	376.7021	12.12429
7.479166	377.1250	12.09890
7.487500	377.5469	12.07375
7.495834	377.9670	12.04890
7.504166	378.3898	12.02436
7.512500	378.8123	12.00010
7.520834	379.2314	11.97615
7.529166	379.6487	11.95254
7.537500	380.0728	11.92926
7.545832	380.4933	11.90634
7.554168	380.9141	11.88378
7.562500	381.3330	11.86159
7.570832	381.7568	11.83976
7.579168	382.1753	11.81831
7.587500	382.5943	11.79722
7.595834	383.0150	11.77654
7.604166	383.4361	11.75624
7.612500	383.8539	11.73635
7.620834	384.2736	11.71688
7.629166	384.6960	11.69778
7.637500	385.1120	11.67902
7.645834	385.5326	11.66068
7.654166	385.9543	11.64276
7.662500	386.3720	11.62524
7.670832	386.7912	11.60811
7.679168	387.2122	11.59138
7.687500	387.6294	11.57505
7.695832	388.0463	11.55909
7.704168	388.4617	11.54350
7.712500	388.8798	11.52827
7.720834	389.3031	11.51346
7.729166	389.7175	11.49894
7.737500	390.1361	11.48476
7.745834	390.5528	11.47092
7.754166	390.9717	11.45745
7.762500	391.3853	11.44425
7.770834	391.8067	11.43134
7.779166	392.2209	11.41872
7.787500	392.6430	11.40638
7.795832	393.0567	11.39432
7.804168	393.4720	11.38254
7.812500	393.8886	11.37108
7.820832	394.3055	11.35982
7.829168	394.7230	11.34879
7.837500	395.1368	11.33796
7.845834	395.5531	11.32738
7.854166	395.9711	11.31698
7.862500	396.3843	11.30676
7.870834	396.7995	11.29670
7.879166	397.2162	11.28681
7.887500	397.6310	11.27709
7.895834	398.0472	11.26746
7.904166	398.4630	11.25806
7.912500	398.8760	11.24876
7.920832	399.2912	11.23958
7.929168	399.7078	11.23052
7.937500	400.1246	11.22154
7.945832	400.5367	11.21270
7.954168	400.9510	11.20400
7.962500	401.3690	11.19539
7.970834	401.7806	11.18684
7.979166	402.1956	11.17841
7.987500	402.6112	11.16997
7.995834	403.0284	11.16158
8.004166	403.4407	11.15330
8.012500	403.8550	11.14505
8.020832	404.2720	11.13691
8.029166	404.6868	11.12883
8.037500	405.1005	11.12075
8.045834	405.5152	11.11271
8.054168	405.9336	11.10471
8.062500	406.3478	11.09672
8.070832	406.7637	11.08880
8.079166	407.1760	11.08097
8.087500	407.5935	11.07313
8.095834	408.0070	11.06531
8.104168	408.4237	11.05753
8.112500	408.8402	11.04974
8.120834	409.2526	11.04197
8.129166	409.6676	11.03425
8.137500	410.0850	11.02654
8.145832	410.4990	11.01886
8.154166	410.9159	11.01121
8.162500	411.3326	11.00355
8.170834	411.7482	10.99590
8.179168	412.1622	10.98826
8.187500	412.5790	10.98062
8.195832	412.9949	10.97302
8.204166	413.4095	10.96542
8.212500	413.8265	10.95784
8.220834	414.2424	10.95028
8.229168	414.6566	10.94273
8.237500	415.0762	10.93521
8.245834	415.4917	10.92769
8.254166	415.9072	10.92014
8.262500	416.3240	10.91261
8.270832	416.7395	10.90510
8.279166	417.1575	10.89759
8.287500	417.5754	10.89009
8.295834	417.9903	10.88260
8.304168	418.4086	10.87511
8.312500	418.8238	10.86760
8.320832	419.2408	10.86010
8.329166	419.6579	10.85259
8.337500	420.0746	10.84510
8.345834	420.4928	10.83760
8.354168	420.9096	10.83015
8.362500	421.3266	10.82267
8.370834	421.7424	10.81517
8.379166	422.1592	10.80767
8.387500	422.5765	10.80018
8.395832	422.9940	10.79270
8.404166	423.4108	10.78525
8.412500	423.8292	10.77781
8.420834	424.2457	10.77044
8.429168	424.6637	10.76306
8.437500	425.0788	10.75558
8.445832	425.4982	10.74812
8.454166	425.9148	10.74072
8.462500	426.3336	10.73332
8.470834	426.7522	10.72592
8.479168	427.1704	10.71850
8.487500	427.5885	10.71107
8.495834	428.0060	10.70360
8.504166	428.4222	10.69615
8.512500	428.8384	10.68870
8.520832	429.2600	10.68133
8.529166	429.6780	10.67397
8.537500	430.0970	10.66660
8.545834	430.5138	10.65923
8.554168	430.9338	10.65185
8.562500	431.3509	10.64446
8.570832	431.7698	10.63710
8.579166	432.1881	10.62981
8.587500	432.6079	10.62248
8.595834	433.0256	10.61512
8.604168	433.4459	10.60774
8.612500	433.8643	10.60039
8.620834	434.2826	10.59301
8.629166	434.7025	10.58565
8.637500	435.1194	10.57834
8.645832	435.5404	10.57100
8.654166	435.9567	10.56365
8.662500	436.3780	10.55627
8.670834	436.7971	10.54889
8.679168	437.2171	10.54155
8.687500	437.6342	10.53421
8.695832	438.0574	10.52684
8.704166	438.4750	10.51948
8.712500	438.8950	10.51211
8.720834	439.3128	10.50474
8.729168	439.7338	10.49739
8.737500	440.1528	10.49003
8.745834	440.5709	10.48270
8.754166	440.9922	10.47538
8.762500	441.4120	10.46808
8.770832	441.8306	10.46077
8.779166	442.2518	10.45344
8.787500	442.6691	10.44612
8.795834	443.0906	10.43880
8.804168	443.5078	10.43150
8.812500	443.9277	10.42422
8.820832	444.3478	10.41691
8.829166	444.7670	10.40958
8.837500	445.1863	10.40227
8.845834	445.6082	10.39496
8.854168	446.0294	10.38769
8.862500	446.4458	10.38039
8.870834	446.8659	10.37309
8.879166	447.2866	10.36582
8.887500	447.7060	10.35855
8.895832	448.1240	10.35127
8.904166	448.5472	10.34401
8.912500	448.9653	10.33677
8.920834	449.3857	10.32951
8.929168	449.8056	10.32226
8.937500	450.2265	10.31502
8.945832	450.6466	10.30779
8.954166	451.0653	10.30056
8.962500	451.4857	10.29329
8.970834	451.9053	10.28602
8.979168	452.3252	10.27874
8.987500	452.7433	10.27148
8.995834	453.1644	10.26423
9.004166	453.5836	10.25703
9.012500	454.0031	10.24980
9.020832	454.4219	10.24257
9.029166	454.8426	10.23538
9.037500	455.2613	10.22820
9.045834	455.6831	10.22106
9.054168	456.1008	10.21388
9.062500	456.5232	10.20673
9.070832	456.9428	10.19957
9.079166	457.3593	10.19237
9.087500	457.7810	10.18516
9.095834	458.2004	10.17799
9.104168	458.6196	10.17084
9.112500	459.0424	10.16368
9.120834	459.4580	10.15651
9.129166	459.8798	10.14932
9.137500	460.2989	10.14215
9.145832	460.7188	10.13498
9.154166	461.1388	10.12786
9.162500	461.5606	10.12078
9.170834	461.9808	10.11364
9.179168	462.3996	10.10645
9.187500	462.8199	10.09932
9.195832	463.2386	10.09220
9.204166	463.6562	10.08509
9.212500	464.0768	10.07805
9.220834	464.4969	10.07101
9.229168	464.9156	10.06393
9.237500	465.3356	10.05682
9.245834	465.7559	10.04974
9.254166	466.1735	10.04268
9.262500	466.5946	10.03568
9.270832	467.0123	10.02868
9.279166	467.4328	10.02170
9.287500	467.8536	10.01470
9.295834	468.2710	10.00767
9.304168	468.6934	10.00066
9.312500	469.1116	9.993674
9.320832	469.5324	9.986712
9.329166	469.9530	9.979722
9.337500	470.3700	9.972785
9.345834	470.7906	9.965844
9.354168	471.2116	9.958847
9.362500	471.6303	9.951824
9.370834	472.0524	9.944812
9.379166	472.4713	9.937836
9.387500	472.8914	9.930871
9.395832	473.3141	9.923924
9.404166	473.7340	9.916993
9.412500	474.1536	9.910035
9.420834	474.5772	9.903062
9.429168	475.0018	9.896101
9.437500	475.4194	9.889141
9.445832	475.8426	9.882241
9.454166	476.2647	9.875368
9.462500	476.6852	9.868469
9.470834	477.1102	9.861564
9.479168	477.5284	9.854682
9.487500	477.9490	9.847792
9.495834	478.3697	9.840926
9.504166	478.7888	9.834094
9.512500	479.2111	9.827288
9.520832	479.6290	9.820458
9.529166	480.0482	9.813628
9.537500	480.4694	9.806806
9.545834	480.8890	9.799976
9.554168	481.3120	9.793170
9.562500	481.7310	9.786382
9.570832	482.1500	9.779578
9.579166	482.5690	9.772798
9.587500	482.9886	9.766039
9.595834	483.4094	9.759199
9.604168	483.8278	9.752398
9.612500	484.2470	9.745644
9.620834	484.6676	9.738918
9.629166	485.0868	9.732218
9.637500	485.5084	9.725512
9.645832	485.9262	9.718774
9.654166	486.3442	9.712086
9.662500	486.7648	9.705425
9.670834	487.1850	9.698725
9.679168	487.6062	9.692076
9.687500	488.0237	9.685468
9.695832	488.4432	9.678824
9.704166	488.8616	9.672176
9.712500	489.2810	9.665532
9.720834	489.7019	9.658868
9.729168	490.1212	9.652249
9.737500	490.5383	9.645614
9.745834	490.9606	9.638978
9.754166	491.3796	9.632356
9.762500	491.7990	9.625793
9.770832	492.2192	9.619246
9.779166	492.6376	9.612703
9.787500	493.0578	9.606161
9.795834	493.4776	9.599640
9.804168	493.8952	9.593164
9.812500	494.3175	9.586697
9.820832	494.7350	9.580270
9.829166	495.1560	9.573842
9.837500	495.5754	9.567434
9.845834	495.9934	9.561009
9.854168	496.4124	9.554582
9.862500	496.8328	9.548180
9.870834	497.2518	9.541782
9.879166	497.6717	9.535376
9.887500	498.0882	9.529022
9.895832	498.5105	9.522681
9.904166	498.9293	9.516305
9.912500	499.3494	9.509966
9.920834	499.7692	9.503639
9.929168	500.1861	9.497338
9.937500	500.6085	9.491032
9.945832	501.0276	9.484712
9.954166	501.4471	9.478449
9.962500	501.8638	9.472230
9.970834	502.2854	9.466008
9.979168	502.7050	9.459800
9.987500	503.1247	9.453594
9.995834	503.5454	9.447397
10.00417	503.9672	9.441208
10.01250	504.3844	9.435024
10.02083	504.8050	9.428856
10.02917	505.2250	9.422724
10.03750	505.6444	9.416586
10.04583	506.0626	9.410488
10.05417	506.4824	9.404398
10.06250	506.9018	9.398282
10.07083	507.3242	9.392220
10.07917	507.7431	9.386168
10.08750	508.1631	9.380151
10.09583	508.5838	9.374144
10.10417	509.0038	9.368141
10.11250	509.4224	9.362164
10.12083	509.8410	9.356194
10.12917	510.2603	9.350204
10.13750	510.6800	9.344199
10.14583	511.1008	9.338231
10.15417	511.5192	9.332288
10.16250	511.9402	9.326368
10.17083	512.3610	9.320449
10.17917	512.7804	9.314538
10.18750	513.2020	9.308616
10.19583	513.6200	9.302726
10.20417	514.0396	9.296851
10.21250	514.4600	9.290982
10.22083	514.8803	9.285138
10.22917	515.3006	9.279336
10.23750	515.7204	9.273541
10.24583	516.1394	9.267774
10.25417	516.5589	9.262031
10.26250	516.9789	9.256326
10.27083	517.3984	9.250678
10.27917	517.8186	9.245016
10.28750	518.2384	9.239350
10.29583	518.6584	9.233722
10.30417	519.0794	9.228131
10.31250	519.4966	9.222532
10.32083	519.9172	9.216954
10.32917	520.3390	9.211384
10.33750	520.7578	9.205826
10.34583	521.1765	9.200288
10.35417	521.5972	9.194784
10.36250	522.0152	9.189280
10.37083	522.4381	9.183822
10.37917	522.8566	9.178363
10.38750	523.2790	9.172884
10.39583	523.6984	9.167445
10.40417	524.1181	9.162012
10.41250	524.5365	9.156564
10.42083	524.9562	9.151139
10.42917	525.3772	9.145744
10.43750	525.7944	9.140351
10.44583	526.2144	9.135015
10.45417	526.6363	9.129712
10.46250	527.0538	9.124411
10.47083	527.4721	9.119124
10.47917	527.8932	9.113852
10.48750	528.3137	9.108619
10.49584	528.7325	9.103425
10.50416	529.1515	9.098220
10.51250	529.5725	9.093024
10.52083	529.9900	9.087860
10.52916	530.4113	9.082701
10.53750	530.8301	9.077524
10.54584	531.2497	9.072399
10.55417	531.6686	9.067328
10.56250	532.0884	9.062296
10.57083	532.5063	9.057282
10.57916	532.9256	9.052326
10.58750	533.3467	9.047388
10.59584	533.7636	9.042447
10.60417	534.1818	9.037525
10.61250	534.5982	9.032632
10.62084	535.0219	9.027751
10.62916	535.4412	9.022869
10.63750	535.8597	9.018012
10.64583	536.2735	9.013142
10.65416	536.6948	9.008286
10.66250	537.1163	9.003449
10.67084	537.5349	8.998641
10.67917	537.9518	8.993891
10.68750	538.3730	8.989160
10.69583	538.7907	8.984425
10.70416	539.2092	8.979735
10.71250	539.6293	8.975109
10.72084	540.0489	8.970464
10.72917	540.4663	8.965832
10.73750	540.8838	8.961236
10.74584	541.3044	8.956664
10.75416	541.7236	8.952119
10.76250	542.1440	8.947574
10.77083	542.5613	8.943092
10.77916	542.9799	8.938663
10.78750	543.3988	8.934238
10.79584	543.8160	8.929813
10.80417	544.2364	8.925431
10.81250	544.6559	8.921094
10.82083	545.0724	8.916766
10.82916	545.4926	8.912436
10.83750	545.9120	8.908129
10.84584	546.3284	8.903866
10.85417	546.7481	8.899562
10.86250	547.1676	8.895244
10.87084	547.5872	8.890991
10.87916	548.0049	8.886762
10.88750	548.4241	8.882568
10.89583	548.8418	8.878389
10.90416	549.2606	8.874254
10.91250	549.6814	8.870144
10.92084	550.0995	8.866068
10.92917	550.5194	8.861966
10.93750	550.9368	8.857901
10.94583	551.3579	8.853889
10.95416	551.7731	8.849848
10.96250	552.1933	8.845842
10.97084	552.6113	8.841881
10.97917	553.0289	8.837951
10.98750	553.4487	8.834042
10.99584	553.8678	8.830132
11.00416	554.2872	8.826219
11.01250	554.7051	8.822342
11.02083	555.1224	8.818492
11.02916	555.5407	8.814651
11.03750	555.9606	8.810831
11.04584	556.3792	8.807022
11.05417	556.7957	8.803201
11.06250	557.2157	8.799376
11.07083	557.6329	8.795569
11.07916	558.0528	8.791782
11.08750	558.4707	8.788022
11.09584	558.8902	8.784289
11.10417	559.3070	8.780559
11.11250	559.7247	8.776851
11.12084	560.1461	8.773169
11.12916	560.5606	8.769496
11.13750	560.9813	8.765848
11.14583	561.3994	8.762204
11.15416	561.8174	8.758582
11.16250	562.2334	8.754965
11.17084	562.6535	8.751361
11.17917	563.0707	8.747772
11.18750	563.4882	8.744197
11.19583	563.9038	8.740638
11.20416	564.3215	8.737086
11.21250	564.7412	8.733538
11.22084	565.1592	8.729989
11.22917	565.5778	8.726465
11.23750	565.9932	8.722950
11.24584	566.4106	8.719465
11.25416	566.8285	8.715984
11.26250	567.2456	8.712501
11.27083	567.6645	8.709031
11.27916	568.0800	8.705566
11.28750	568.4980	8.702132
11.29584	568.9148	8.698699
11.30417	569.3309	8.695272
11.31250	569.7476	8.691869
11.32083	570.1637	8.688438
11.32916	570.5824	8.685035
11.33750	570.9954	8.681681
11.34584	571.4149	8.678342
11.35417	571.8324	8.675024
11.36250	572.2478	8.671709
11.37084	572.6654	8.668366
11.37916	573.0820	8.665069
11.38750	573.4967	8.661792
11.39583	573.9120	8.658526
11.40416	574.3318	8.655298
11.41250	574.7460	8.652056
11.42084	575.1626	8.648800
11.42917	575.5801	8.645574
11.43750	575.9984	8.642319
11.44583	576.4108	8.639050
11.45416	576.8278	8.635825
11.46250	577.2436	8.632579
11.47084	577.6597	8.629338
11.47917	578.0770	8.626098
11.48750	578.4911	8.622882
11.49584	578.9065	8.619707
11.50416	579.3234	8.616558
11.51250	579.7400	8.613391
11.52083	580.1524	8.610246
11.52916	580.5699	8.607172
11.53750	580.9856	8.604126
11.54584	581.3995	8.601078
11.55417	581.8184	8.598024
11.56250	582.2319	8.594951
11.57083	582.6474	8.591858
11.57916	583.0638	8.588782
11.58750	583.4801	8.585694
11.59584	583.8928	8.582634
11.60417	584.3092	8.579618
11.61250	584.7255	8.576584
11.62084	585.1399	8.573549
11.62916	585.5556	8.570545
11.63750	585.9693	8.567572
11.64583	586.3863	8.564632
11.65416	586.7990	8.561703
11.66250	587.2144	8.558781
11.67084	587.6300	8.555868
11.67917	588.0438	8.552941
11.68750	588.4608	8.549994
11.69583	588.8726	8.547080
11.70416	589.2892	8.544195
11.71250	589.7049	8.541334
11.72084	590.1192	8.538468
11.72917	590.5340	8.535597
11.73750	590.9500	8.532750
11.74584	591.3632	8.529894
11.75416	591.7805	8.527070
11.76250	592.1941	8.524306
11.77083	592.6120	8.521551
11.77916	593.0258	8.518749
11.78750	593.4397	8.515900
11.79584	593.8562	8.513047
11.80417	594.2705	8.510209
11.81250	594.6868	8.507428
11.82083	595.1006	8.504695
11.82916	595.5157	8.501949
11.83750	595.9312	8.499170
11.84584	596.3465	8.496382
11.85417	596.7610	8.493605
11.86250	597.1768	8.490864
11.87084	597.5915	8.488175
11.87916	598.0074	8.485469
11.88750	598.4230	8.482751
11.89583	598.8388	8.480079
11.90416	599.2533	8.477376
11.91250	599.6661	8.474637
11.92084	600.0859	8.471949
11.92917	600.4991	8.469284
11.93750	600.9140	8.466616
11.94583	601.3261	8.463934
11.95416	601.7426	8.461239
11.96250	602.1571	8.458600
11.97084	602.5720	8.455994
11.97917	602.9874	8.453320
11.98750	603.4012	8.450666
11.99584	603.8182	8.448076
12.00416	604.2320	8.445492
12.01250	604.6480	8.442882
12.02083	605.0636	8.440285
12.02916	605.4766	8.437696
12.03750	605.8921	8.435095
12.04584	606.3084	8.432484
12.05417	606.7242	8.429906
12.06250	607.1372	8.427347
12.07083	607.5491	8.424750
12.07916	607.9671	8.422147
12.08750	608.3810	8.419547
12.09584	608.7955	8.416961
12.10417	609.2100	8.414364
12.11250	609.6264	8.411797
12.12084	610.0422	8.409241
12.12916	610.4532	8.406676
12.13750	610.8672	8.404086
12.14583	611.2855	8.401506
12.15416	611.7000	8.398959
12.16250	612.1124	8.396442
12.17084	612.5274	8.393915
12.17917	612.9434	8.391371
12.18750	613.3562	8.388840
12.19583	613.7716	8.386254
12.20416	614.1880	8.383672
12.21250	614.6008	8.381129
12.22084	615.0157	8.378566
12.22917	615.4302	8.376020
12.23750	615.8457	8.373456
12.24584	616.2599	8.370888
12.25416	616.6750	8.368300
12.26250	617.0880	8.365728
12.27083	617.5043	8.363156
12.27916	617.9170	8.360631
12.28750	618.3324	8.358111
12.29584	618.7451	8.355561
12.30417	619.1590	8.353009
12.31250	619.5750	8.350434
12.32083	619.9891	8.347882
12.32916	620.4028	8.345324
12.33750	620.8182	8.342770
12.34584	621.2331	8.340197
12.35417	621.6459	8.337610
12.36250	622.0608	8.335022
12.37084	622.4750	8.332411
12.37916	622.8892	8.329812
12.38750	623.3025	8.327219
12.39583	623.7166	8.324606
12.40416	624.1324	8.321960
12.41250	624.5452	8.319288
12.42084	624.9628	8.316626
12.42917	625.3748	8.313958
12.43750	625.7890	8.311274
12.44583	626.2050	8.308609
12.45416	626.6214	8.305942
12.46250	627.0351	8.303231
12.47084	627.4481	8.300556
12.47917	627.8644	8.297866
12.48750	628.2785	8.295152
12.49584	628.6924	8.292442
12.50416	629.1075	8.289694
12.51250	629.5246	8.286932
12.52083	629.9368	8.284187
12.52916	630.3524	8.281430
12.53750	630.7684	8.278668
12.54584	631.1825	8.275898
12.55417	631.5974	8.273094
12.56250	632.0150	8.270324
12.57083	632.4306	8.267512
12.57916	632.8438	8.264656
12.58750	633.2590	8.261816
12.59584	633.6752	8.258996
12.60417	634.0906	8.256168
12.61250	634.5088	8.253369
12.62084	634.9232	8.250528
12.62916	635.3390	8.247664
12.63750	635.7543	8.244781
12.64583	636.1688	8.241861
12.65416	636.5852	8.238995
12.66250	637.0024	8.236163
12.67084	637.4164	8.233258
12.67917	637.8336	8.230316
12.68750	638.2484	8.227391
12.69583	638.6660	8.224358
12.70416	639.0820	8.221289
12.71250	639.4966	8.218253
12.72084	639.9110	8.215224
12.72917	640.3293	8.212150
12.73750	640.7452	8.209047
12.74584	641.1635	8.205900
12.75416	641.5772	8.202786
12.76250	641.9945	8.199669
12.77083	642.4126	8.196504
12.77916	642.8278	8.193366
12.78750	643.2425	8.190290
12.79584	643.6601	8.187186
12.80417	644.0776	8.183991
12.81250	644.4929	8.180800
12.82083	644.9104	8.177611
12.82916	645.3269	8.174442
12.83750	645.7415	8.171240
12.84584	646.1594	8.168018
12.85417	646.5770	8.164794
12.86250	646.9920	8.161522
12.87083	647.4090	8.158210
12.87917	647.8243	8.154868
12.88750	648.2421	8.151539
12.89583	648.6605	8.148202
12.90416	649.0769	8.144852
12.91250	649.4919	8.141450
12.92084	649.9101	8.138046
12.92917	650.3260	8.134634
12.93750	650.7426	8.131179
12.94583	651.1585	8.127718
12.95416	651.5782	8.124234
12.96250	651.9924	8.120731
12.97084	652.4086	8.117212
12.97917	652.8270	8.113679
12.98750	653.2430	8.110129
12.99583	653.6598	8.106594
13.00417	654.0740	8.103024
13.01250	654.4905	8.099426
13.02083	654.9075	8.095840
13.02916	655.3255	8.092231
13.03750	655.7413	8.088579
13.04584	656.1568	8.084929
13.05417	656.5736	8.081265
13.06250	656.9902	8.077606
13.07083	657.4068	8.073895
13.07916	657.8220	8.070124
13.08750	658.2374	8.066350
13.09584	658.6534	8.062587
13.10417	659.0710	8.058814
13.11250	659.4878	8.055053
13.12083	659.9032	8.051260
13.12917	660.3182	8.047464
13.13750	660.7344	8.043660
13.14583	661.1503	8.039776
13.15416	661.5674	8.035891
13.16250	661.9840	8.032034
13.17084	662.3969	8.028176
13.17917	662.8175	8.024276
13.18750	663.2328	8.020366
13.19583	663.6454	8.016406
13.20416	664.0616	8.012438
13.21250	664.4786	8.008481
13.22084	664.8954	8.004485
13.22917	665.3094	8.000514
13.23750	665.7250	7.996534
13.24583	666.1398	7.992526
13.25417	666.5556	7.988480
13.26250	666.9728	7.984410
13.27083	667.3895	7.980351
13.27916	667.8035	7.976325
13.28750	668.2196	7.972326
13.29584	668.6343	7.968295
13.30417	669.0489	7.964269
13.31250	669.4636	7.960230
13.32083	669.8810	7.956156
13.32916	670.2934	7.952088
13.33750	670.7080	7.948018
13.34584	671.1250	7.943937
13.35417	671.5400	7.939831
13.36250	671.9550	7.935665
13.37083	672.3681	7.931484
13.37917	672.7853	7.927322
13.38750	673.1996	7.923110
13.39583	673.6134	7.918879
13.40416	674.0312	7.914668
13.41250	674.4434	7.910486
13.42084	674.8600	7.906330
13.42917	675.2730	7.902178
13.43750	675.6890	7.897980
13.44583	676.1030	7.893820
13.45416	676.5186	7.889645
13.46250	676.9328	7.885454
13.47084	677.3469	7.881296
13.47917	677.7622	7.877140
13.48750	678.1761	7.872976
13.49583	678.5929	7.868756
13.50417	679.0049	7.864520
13.51250	679.4212	7.860284
13.52083	679.8326	7.856070
13.52916	680.2494	7.851835
13.53750	680.6632	7.847601
13.54584	681.0772	7.843342
13.55417	681.4922	7.839082
13.56250	681.9062	7.834837
13.57083	682.3218	7.830582
13.57916	682.7332	7.826312
13.58750	683.1500	7.822047
13.59584	683.5651	7.817774
13.60417	683.9789	7.813501
13.61250	684.3919	7.809240
13.62083	684.8074	7.804945
13.62917	685.2226	7.800619
13.63750	685.6380	7.796335
13.64583	686.0500	7.792085
13.65416	686.4658	7.787814
13.66250	686.8809	7.783559
13.67084	687.2966	7.779284
13.67917	687.7093	7.775019
13.68750	688.1257	7.770759
13.69583	688.5387	7.766482
13.70416	688.9515	7.762234
13.71250	689.3668	7.758014
13.72084	689.7804	7.753731
13.72917	690.1980	7.749408
13.73750	690.6110	7.745126
13.74583	691.0265	7.740836
13.75417	691.4414	7.736545
13.76250	691.8543	7.732263
13.77083	692.2718	7.727954
13.77916	692.6866	7.723639
13.78750	693.1005	7.719332
13.79584	693.5145	7.715046
13.80417	693.9312	7.710782
13.81250	694.3460	7.706524
13.82083	694.7597	7.702243
13.82916	695.1747	7.697966
13.83750	695.5904	7.693713
13.84584	696.0053	7.689418
13.85417	696.4215	7.685132
13.86250	696.8336	7.680879
13.87083	697.2484	7.676593
13.87917	697.6626	7.672272
13.88750	698.0795	7.667966
13.89583	698.4966	7.663680
13.90416	698.9114	7.659388
13.91250	699.3253	7.655082
13.92084	699.7412	7.650784
13.92917	700.1555	7.646544
13.93750	700.5720	7.642239
13.94583	700.9858	7.637891
13.95416	701.4031	7.633609
13.96250	701.8169	7.629340
13.97084	702.2343	7.625000
13.97917	702.6500	7.620671
13.98750	703.0630	7.616379
13.99583	703.4802	7.612099
14.00417	703.8956	7.607778
14.01250	704.3116	7.603420
14.02083	704.7260	7.599156
14.02916	705.1415	7.594916
14.03750	705.5575	7.590606
14.04584	705.9742	7.586298
14.05417	706.3897	7.582030
14.06250	706.8039	7.577718
14.07083	707.2208	7.573328
14.07916	707.6371	7.568904
14.08750	708.0538	7.564544
14.09584	708.4672	7.560178
14.10417	708.8836	7.555781
14.11250	709.3003	7.551382
14.12083	709.7176	7.547004
14.12917	710.1332	7.542597
14.13750	710.5462	7.538169
14.14583	710.9638	7.533774
14.15416	711.3798	7.529420
14.16250	711.7946	7.525078
14.17084	712.2109	7.520645
14.17917	712.6259	7.516204
14.18750	713.0420	7.511788
14.19583	713.4578	7.507350
14.20416	713.8726	7.502881
14.21250	714.2906	7.498408
14.22084	714.7032	7.493944
14.22917	715.1202	7.489440
14.23750	715.5348	7.484931
14.24583	715.9518	7.480381
14.25417	716.3657	7.475812
14.26250	716.7819	7.471270
14.27083	717.1961	7.466684
14.27916	717.6121	7.462079
14.28750	718.0276	7.457509
14.29584	718.4437	7.452950
14.30417	718.8594	7.448328
14.31250	719.2745	7.443663
14.32083	719.6900	7.439030
14.32916	720.1066	7.434397
14.33750	720.5218	7.429800
14.34584	720.9360	7.425180
14.35417	721.3530	7.420554
14.36250	721.7675	7.415926
14.37083	722.1820	7.411245
14.37917	722.5994	7.406524
14.38750	723.0147	7.401856
14.39583	723.4272	7.397218
14.40416	723.8440	7.392530
14.41250	724.2624	7.387876
14.42084	724.6770	7.383218
14.42917	725.0892	7.378534
14.43750	725.5064	7.373858
14.44583	725.9245	7.369189
14.45416	726.3368	7.364562
14.46250	726.7526	7.359978
14.47084	727.1684	7.355422
14.47917	727.5853	7.350878
14.48750	728.0019	7.346362
14.49583	728.4171	7.341872
14.50417	728.8324	7.337429
14.51250	729.2453	7.333030
14.52083	729.6640	7.328589
14.52916	730.0791	7.324228
14.53750	730.4950	7.319919
14.54584	730.9094	7.315579
14.55417	731.3249	7.311262
14.56250	731.7410	7.306984
14.57083	732.1585	7.302735
14.57916	732.5743	7.298494
14.58750	732.9911	7.294250
14.59584	733.4076	7.290020
14.60417	733.8214	7.285871
14.61250	734.2388	7.281687
14.62083	734.6570	7.277484
14.62917	735.0702	7.273339
14.63750	735.4878	7.269190
14.64583	735.9018	7.265056
14.65416	736.3190	7.260924
14.66250	736.7344	7.256811
14.67084	737.1514	7.252724
14.67917	737.5664	7.248650
14.68750	737.9835	7.244589
14.69583	738.4000	7.240530
14.70416	738.8157	7.236495
14.71250	739.2325	7.232482
14.72084	739.6480	7.228490
14.72917	740.0657	7.224500
14.73750	740.4806	7.220510
14.74583	740.8962	7.216548
14.75417	741.3139	7.212579
14.76250	741.7312	7.208610
14.77083	742.1481	7.204670
14.77916	742.5616	7.200731
14.78750	742.9770	7.196789
14.79584	743.3974	7.192856
14.80417	743.8145	7.188934
14.81250	744.2288	7.185032
14.82083	744.6439	7.181118
14.82916	745.0587	7.177215
14.83750	745.4774	7.173343
14.84584	745.8920	7.169439
14.85417	746.3097	7.165495
14.86250	746.7258	7.161600
14.87083	747.1411	7.157719
14.87917	747.5576	7.153850
14.88750	747.9745	7.149985
14.89583	748.3906	7.146118
14.90416	748.8066	7.142292
14.91250	749.2205	7.138438
14.92084	749.6388	7.134559
14.92917	750.0550	7.130734
14.93750	750.4720	7.126954
14.94583	750.8874	7.123156
14.95416	751.3044	7.119363
14.96250	751.7210	7.115575
14.97084	752.1362	7.111804
14.97917	752.5516	7.108032
14.98750	752.9687	7.104241
14.99583	753.3843	7.100494
15.00417	753.7989	7.096781
15.01250	754.2160	7.093079
15.02083	754.6352	7.089362
15.02916	755.0480	7.085664
15.03750	755.4648	7.081976
15.04584	755.8831	7.078276
15.05417	756.2978	7.074545
15.06250	756.7168	7.070820
15.07083	757.1308	7.067120
15.07916	757.5453	7.063406
15.08750	757.9644	7.059686
15.09584	758.3806	7.056000
15.10417	758.7965	7.052363
15.11250	759.2131	7.048699
15.12083	759.6290	7.045019
15.12917	760.0453	7.041362
15.13750	760.4612	7.037750
15.14583	760.8800	7.034152
15.15416	761.2919	7.030530
15.16250	761.7090	7.026934
15.17084	762.1252	7.023364
15.17917	762.5430	7.019739
15.18750	762.9571	7.016088
15.19583	763.3735	7.012485
15.20416	763.7905	7.008914
15.21250	764.2082	7.005368
15.22084	764.6222	7.001831
15.22917	765.0410	6.998262
15.23750	765.4549	6.994739
15.24583	765.8728	6.991206
15.25417	766.2886	6.987674
15.26250	766.7058	6.984168
15.27083	767.1220	6.980660
15.27916	767.5382	6.977137
15.28750	767.9542	6.973619
15.29584	768.3701	6.970093
15.30417	768.7876	6.966620
15.31250	769.2065	6.963205
15.32083	769.6202	6.959736
15.32916	770.0370	6.956295
15.33750	770.4540	6.952878
15.34584	770.8678	6.949470
15.35417	771.2848	6.946079
15.36250	771.7030	6.942688
15.37083	772.1206	6.939304
15.37917	772.5343	6.935931
15.38750	772.9529	6.932520
15.39583	773.3681	6.929122
15.40416	773.7843	6.925800
15.41250	774.2010	6.922449
15.42084	774.6171	6.919089
15.42917	775.0320	6.915746
15.43750	775.4505	6.912385
15.44583	775.8653	6.909059
15.45416	776.2824	6.905766
15.46250	776.6970	6.902468
15.47084	777.1132	6.899153
15.47917	777.5308	6.895812
15.48750	777.9476	6.892493
15.49583	778.3632	6.889205
15.50417	778.7792	6.885943
15.51250	779.1930	6.882691
15.52083	779.6109	6.879488
15.52916	780.0250	6.876311
15.53750	780.4422	6.873120
15.54584	780.8569	6.869926
15.55417	781.2751	6.866760
15.56250	781.6887	6.863634
15.57083	782.1069	6.860506
15.57916	782.5237	6.857380
15.58750	782.9408	6.854231
15.59584	783.3558	6.851088
15.60417	783.7722	6.847955
15.61250	784.1882	6.844839
15.62083	784.6018	6.841732
15.62917	785.0194	6.838650
15.63750	785.4360	6.835566
15.64583	785.8530	6.832463
15.65416	786.2674	6.829394
15.66250	786.6860	6.826355
15.67084	787.1006	6.823332
15.67917	787.5186	6.820313
15.68750	787.9329	6.817290
15.69583	788.3505	6.814265
15.70416	788.7639	6.811245
15.71250	789.1813	6.808244
15.72084	789.5995	6.805280
15.72917	790.0144	6.802344
15.73750	790.4316	6.799364
15.74583	790.8486	6.796400
15.75417	791.2640	6.793470
15.76250	791.6820	6.790564
15.77083	792.0968	6.787680
15.77916	792.5136	6.784798
15.78750	792.9290	6.781960
15.79584	793.3476	6.779121
15.80417	793.7656	6.776262
15.81250	794.1803	6.773422
15.82083	794.5978	6.770612
15.82916	795.0141	6.767810
15.83750	795.4322	6.765022
15.84584	795.8466	6.762236
15.85417	796.2639	6.759450
15.86250	796.6818	6.756680
15.87083	797.0980	6.753897
15.87917	797.5146	6.751118
15.88750	797.9322	6.748380
15.89583	798.3491	6.745664
15.90416	798.7650	6.742956
15.91250	799.1846	6.740238
15.92084	799.6010	6.737528
15.92917	800.0176	6.734859
15.93750	800.4353	6.732224
15.94583	800.8506	6.729584
15.95416	801.2671	6.726928
15.96250	801.6868	6.724297
15.97084	802.1000	6.721718
15.97917	802.5200	6.719119
15.98750	802.9374	6.716534
15.99583	803.3528	6.713970
16.00417	803.7724	6.711410
16.01250	804.1882	6.708861
16.02084	804.6034	6.706329
16.02917	805.0218	6.703821
16.03750	805.4376	6.701334
16.04584	805.8542	6.698863
16.05417	806.2724	6.696338
16.06250	806.6900	6.693853
16.07083	807.1054	6.691397
16.07916	807.5232	6.688961
16.08750	807.9392	6.686532
16.09583	808.3574	6.684076
16.10416	808.7762	6.681595
16.11250	809.1895	6.679160
16.12083	809.6090	6.676753
16.12917	810.0262	6.674371
16.13750	810.4438	6.672012
16.14584	810.8625	6.669682
16.15417	811.2765	6.667366
16.16250	811.6957	6.665024
16.17084	812.1125	6.662676
16.17917	812.5282	6.660398
16.18750	812.9450	6.658124
16.19583	813.3628	6.655850
16.20416	813.7805	6.653606
16.21250	814.1972	6.651374
16.22083	814.6134	6.649179
16.22916	815.0334	6.646945
16.23750	815.4500	6.644692
16.24583	815.8681	6.642511
16.25417	816.2832	6.640329
16.26250	816.7012	6.638116
16.27084	817.1168	6.635976
16.27917	817.5345	6.633853
16.28750	817.9512	6.631725
16.29584	818.3690	6.629579
16.30417	818.7856	6.627411
16.31250	819.2000	6.625312
16.32083	819.6206	6.623264
16.32916	820.0375	6.621209
16.33750	820.4531	6.619182
16.34583	820.8684	6.617178
16.35416	821.2866	6.615156
16.36250	821.7051	6.613134
16.37083	822.1208	6.611142
16.37917	822.5379	6.609197
16.38750	822.9562	6.607288
16.39584	823.3739	6.605350
16.40417	823.7906	6.603402
16.41250	824.2075	6.601474
16.42084	824.6222	6.599575
16.42917	825.0434	6.597716
16.43750	825.4574	6.595836
16.44583	825.8741	6.593962
16.45416	826.2920	6.592095
16.46250	826.7072	6.590230
16.47083	827.1268	6.588384
16.47916	827.5444	6.586575
16.48750	827.9582	6.584776
16.49583	828.3766	6.582988
16.50417	828.7928	6.581199
16.51250	829.2082	6.579389
16.52084	829.6275	6.577637
16.52917	830.0424	6.575926
16.53750	830.4594	6.574201
16.54584	830.8766	6.572486
16.55417	831.2907	6.570784
16.56250	831.7108	6.569112
16.57083	832.1270	6.567429
16.57916	832.5420	6.565728
16.58750	832.9601	6.564070
16.59583	833.3760	6.562418
16.60416	833.7910	6.560750
16.61250	834.2090	6.559071
16.62083	834.6260	6.557422
16.62917	835.0425	6.555800
16.63750	835.4581	6.554197
16.64584	835.8758	6.552579
16.65417	836.2929	6.551013
16.66250	836.7088	6.549492
16.67084	837.1256	6.547952
16.67917	837.5430	6.546426
16.68750	837.9560	6.544928
16.69583	838.3747	6.543438
16.70416	838.7914	6.541988
16.71250	839.2079	6.540537
16.72083	839.6250	6.539062
16.72916	840.0400	6.537607
16.73750	840.4569	6.536162
16.74583	840.8744	6.534720
16.75417	841.2921	6.533250
16.76250	841.7061	6.531786
16.77084	842.1234	6.530356
16.77917	842.5388	6.528912
16.78750	842.9562	6.527449
16.79584	843.3734	6.526012
16.80417	843.7886	6.524610
16.81250	844.2046	6.523234
16.82083	844.6220	6.521860
16.82916	845.0350	6.520480
16.83750	845.4538	6.519143
16.84583	845.8704	6.517840
16.85416	846.2868	6.516543
16.86250	846.7022	6.515290
16.87083	847.1184	6.514040
16.87917	847.5344	6.512771
16.88750	847.9528	6.511506
16.89584	848.3648	6.510229
16.90417	848.7839	6.508968
16.91250	849.1984	6.507734
16.92084	849.6132	6.506509
16.92917	850.0301	6.505288
16.93750	850.4454	6.504078
16.94583	850.8606	6.502854
16.95416	851.2775	6.501641
16.96250	851.6920	6.500458
16.97083	852.1080	6.499280
16.97916	852.5253	6.498102
16.98750	852.9387	6.496928
16.99583	853.3543	6.495746
17.00417	853.7700	6.494575
17.01250	854.1841	6.493413
17.02084	854.5988	6.492235
17.02917	855.0166	6.491098
17.03750	855.4316	6.489963
17.04584	855.8452	6.488828
17.05417	856.2618	6.487688
17.06250	856.6780	6.486539
17.07083	857.0914	6.485386
17.07916	857.5094	6.484248
17.08750	857.9232	6.483130
17.09583	858.3406	6.482030
17.10416	858.7528	6.480940
17.11250	859.1691	6.479843
17.12083	859.5849	6.478746
17.12917	860.0001	6.477658
17.13750	860.4144	6.476581
17.14584	860.8292	6.475528
17.15417	861.2459	6.474509
17.16250	861.6601	6.473489
17.17084	862.0744	6.472461
17.17917	862.4899	6.471445
17.18750	862.9055	6.470440
17.19583	863.3210	6.469414
17.20416	863.7356	6.468395
17.21250	864.1519	6.467370
17.22083	864.5657	6.466339
17.22916	864.9809	6.465313
17.23750	865.3955	6.464292
17.24583	865.8124	6.463303
17.25417	866.2250	6.462326
17.26250	866.6414	6.461335
17.27084	867.0592	6.460337
17.27917	867.4696	6.459340
17.28750	867.8862	6.458354
17.29584	868.3003	6.457395
17.30417	868.7166	6.456440
17.31250	869.1319	6.455474
17.32083	869.5445	6.454516
17.32916	869.9613	6.453559
17.33750	870.3772	6.452605
17.34583	870.7895	6.451644
17.35416	871.2056	6.450672
17.36250	871.6205	6.449734
17.37083	872.0375	6.448809
17.37917	872.4499	6.447873
17.38750	872.8674	6.446931
17.39584	873.2813	6.446039
17.40417	873.6975	6.445122
17.41250	874.1134	6.444186
17.42084	874.5270	6.443237
17.42917	874.9425	6.442274
17.43750	875.3558	6.441342
17.44583	875.7731	6.440420
17.45416	876.1875	6.439489
17.46250	876.6039	6.438578
17.47083	877.0191	6.437690
17.47916	877.4340	6.436782
17.48750	877.8489	6.435865
17.49583	878.2640	6.434926
17.50417	878.6801	6.434018
17.51250	879.0962	6.433156
17.52084	879.5103	6.432273
17.52917	879.9268	6.431406
17.53750	880.3424	6.430544
17.54584	880.7538	6.429693
17.55417	881.1687	6.428838
17.56250	881.5850	6.427963
17.57083	881.9994	6.427090
17.57916	882.4152	6.426236
17.58750	882.8296	6.425390
17.59583	883.2453	6.424521
17.60416	883.6609	6.423666
17.61250	884.0786	6.422814
17.62083	884.4926	6.421955
17.62917	884.9108	6.421098
17.63750	885.3231	6.420240
17.64584	885.7402	6.419418
17.65417	886.1551	6.418614
17.66250	886.5725	6.417829
17.67084	886.9887	6.417014
17.67917	887.4032	6.416224
17.68750	887.8218	6.415457
17.69583	888.2356	6.414654
17.70416	888.6499	6.413839
17.71250	889.0675	6.413004
17.72083	889.4844	6.412195
17.72916	889.8991	6.411404
17.73750	890.3158	6.410611
17.74583	890.7320	6.409824
17.75417	891.1470	6.409054
17.76250	891.5644	6.408270
17.77084	891.9801	6.407480
17.77917	892.3961	6.406690
17.78750	892.8124	6.405941
17.79584	893.2269	6.405212
17.80417	893.6452	6.404459
17.81250	894.0613	6.403680
17.82083	894.4756	6.402921
17.82916	894.8938	6.402148
17.83750	895.3111	6.401371
17.84583	895.7275	6.400611
17.85416	896.1420	6.399838
17.86250	896.5575	6.399090
17.87083	896.9759	6.398300
17.87917	897.3942	6.397482
17.88750	897.8095	6.396726
17.89584	898.2250	6.395972
17.90417	898.6369	6.395210
17.91250	899.0518	6.394453
17.92084	899.4718	6.393730
17.92917	899.8914	6.392954
17.93750	900.3082	6.392174
17.94583	900.7242	6.391428
17.95416	901.1378	6.390700
17.96250	901.5545	6.390008
17.97083	901.9722	6.389268
17.97916	902.3875	6.388540
17.98750	902.8031	6.387816
17.99583	903.2197	6.387076
18.00417	903.6374	6.386310
18.01250	904.0509	6.385608
18.02084	904.4703	6.384922
18.02917	904.8856	6.384182
18.03750	905.3019	6.383459
18.04584	905.7205	6.382724
18.05417	906.1334	6.382000
18.06250	906.5528	6.381265
18.07083	906.9691	6.380535
18.07916	907.3837	6.379830
18.08750	907.8000	6.379133
18.09583	908.2172	6.378450
18.10416	908.6338	6.377745
18.11250	909.0497	6.377047
18.12083	909.4652	6.376348
18.12917	909.8828	6.375654
18.13750	910.2981	6.374948
18.14584	910.7169	6.374238
18.15417	911.1319	6.373528
18.16250	911.5476	6.372812
18.17084	911.9626	6.372072
18.17917	912.3805	6.371328
18.18750	912.7959	6.370634
18.19583	913.2113	6.369946
18.20416	913.6294	6.369263
18.21250	914.0444	6.368554
18.22083	914.4613	6.367857
18.22916	914.8759	6.367187
18.23750	915.2931	6.366514
18.24583	915.7106	6.365856
18.25417	916.1244	6.365198
18.26250	916.5399	6.364520
18.27084	916.9566	6.363814
18.27917	917.3736	6.363150
18.28750	917.7879	6.362500
18.29584	918.2047	6.361848
18.30417	918.6225	6.361186
18.31250	919.0370	6.360500
18.32083	919.4539	6.359817
18.32916	919.8684	6.359132
18.33750	920.2856	6.358496
18.34583	920.7018	6.357859
18.35416	921.1166	6.357144
18.36250	921.5338	6.356418
18.37083	921.9481	6.355690
18.37917	922.3662	6.354988
18.38750	922.7781	6.354329
18.39584	923.1992	6.353660
18.40417	923.6119	6.352978
18.41250	924.0316	6.352283
18.42084	924.4466	6.351531
18.42917	924.8609	6.350785
18.43750	925.2801	6.350144
18.44583	925.6944	6.349452
18.45416	926.1106	6.348742
18.46250	926.5274	6.348076
18.47083	926.9446	6.347380
18.47916	927.3606	6.346705
18.48750	927.7782	6.346044
18.49583	928.1913	6.345395
18.50417	928.6088	6.344797
18.51250	929.0250	6.344197
18.52084	929.4422	6.343530
18.52917	929.8588	6.342926
18.53750	930.2755	6.342351
18.54584	930.6912	6.341696
18.55417	931.1062	6.341041
18.56250	931.5241	6.340390
18.57083	931.9398	6.339737
18.57916	932.3543	6.339082
18.58750	932.7709	6.338425
18.59583	933.1879	6.337781
18.60416	933.6025	6.337158
18.61250	934.0192	6.336498
18.62083	934.4338	6.335818
18.62917	934.8506	6.335166
18.63750	935.2695	6.334536
18.64584	935.6834	6.333889
18.65417	936.1001	6.333206
18.66250	936.5136	6.332560
18.67084	936.9326	6.331890
18.67917	937.3488	6.331226
18.68750	937.7645	6.330586
18.69583	938.1801	6.329914
18.70416	938.5965	6.329265
18.71250	939.0118	6.328657
18.72083	939.4285	6.328015
18.72916	939.8422	6.327371
18.73750	940.2574	6.326746
18.74583	940.6732	6.326070
18.75417	941.0894	6.325408
18.76250	941.5056	6.324739
18.77084	941.9219	6.324062
18.77917	942.3356	6.323416
18.78750	942.7516	6.322780
18.79584	943.1676	6.322146
18.80417	943.5834	6.321485
18.81250	943.9975	6.320816
18.82083	944.4156	6.320190
18.82916	944.8306	6.319589
18.83750	945.2455	6.318982
18.84583	945.6598	6.318386
18.85416	946.0762	6.317804
18.86250	946.4928	6.317211
18.87083	946.9074	6.316580
18.87917	947.3230	6.315892
18.88750	947.7391	6.315234
18.89584	948.1524	6.314624
18.90417	948.5695	6.313946
18.91250	948.9848	6.313264
18.92084	949.4007	6.312645
18.92917	949.8179	6.311996
18.93750	950.2321	6.311329
18.94583	950.6481	6.310700
18.95416	951.0650	6.310086
18.96250	951.4809	6.309492
18.97083	951.8957	6.308904
18.97916	952.3130	6.308290
18.98750	952.7275	6.307720
18.99583	953.1449	6.307144
19.00417	953.5590	6.306530
19.01250	953.9730	6.305930
19.02084	954.3895	6.305340
19.02917	954.8039	6.304729
19.03750	955.2202	6.304090
19.04584	955.6341	6.303419
19.05417	956.0534	6.302748
19.06250	956.4678	6.302124
19.07083	956.8856	6.301482
19.07916	957.2992	6.300870
19.08750	957.7168	6.300220
19.09583	958.1297	6.299560
19.10416	958.5459	6.298912
19.11250	958.9618	6.298260
19.12083	959.3789	6.297608
19.12917	959.7944	6.297008
19.13750	960.2119	6.296406
19.14584	960.6274	6.295742
19.15417	961.0419	6.295097
19.16250	961.4575	6.294430
19.17084	961.8738	6.293775
19.17917	962.2894	6.293116
19.18750	962.7058	6.292456
19.19583	963.1212	6.291840
19.20416	963.5368	6.291242
19.21250	963.9543	6.290618
19.22083	964.3682	6.290027
19.22916	964.7858	6.289448
19.23750	965.2025	6.288842
19.24583	965.6170	6.288234
19.25417	966.0305	6.287630
19.26250	966.4495	6.287036
19.27084	966.8660	6.286436
19.27917	967.2824	6.285806
19.28750	967.6981	6.285168
19.29584	968.1112	6.284541
19.30417	968.5274	6.283889
19.31250	968.9444	6.283229
19.32083	969.3582	6.282572
19.32916	969.7728	6.281910
19.33750	970.1884	6.281215
19.34583	970.6016	6.280524
19.35416	971.0199	6.279841
19.36250	971.4360	6.279157
19.37083	971.8507	6.278503
19.37917	972.2688	6.277826
19.38750	972.6858	6.277160
19.39584	973.1003	6.276503
19.40417	973.5166	6.275886
19.41250	973.9340	6.275280
19.42084	974.3478	6.274704
19.42917	974.7675	6.274112
19.43750	975.1822	6.273500
19.44583	975.5976	6.272891
19.45416	976.0125	6.272256
19.46250	976.4299	6.271655
19.47083	976.8444	6.271038
19.47916	977.2622	6.270428
19.48750	977.6761	6.269806
